# OpenSignals Text File Format. Version 1
# {"00:07:80:4D:2E:9E": {"position": 0, "device": "biosignalsplux", "device name": "00:07:80:4D:2E:9E", "device connection": "BTH00:07:80:4D:2E:9E", "sampling rate": 1000, "resolution": [16], "firmware version": 774, "comments": "", "keywords": "", "mode": 0, "sync interval": 2, "date": "2020-7-25", "time": "19:38:19.671", "channels": [1], "sensor": ["EMG"], "label": ["CH1"], "column": ["nSeq", "DI", "CH1"], "special": [{}], "digital IO": [0, 1]}}
# EndOfHeader
0	0	33012	
1	0	33028	
2	0	33020	
3	0	33156	
4	0	32900	
5	0	32828	
6	0	32868	
7	0	32776	
8	0	32796	
9	0	32638	
10	0	32620	
11	0	32745	
12	0	32668	
13	0	32596	
14	0	32480	
15	0	32560	
16	0	32724	
17	0	32788	
18	0	32845	
19	0	32688	
20	0	32864	
21	0	33048	
22	0	32960	
23	0	33028	
24	0	32941	
25	0	32868	
26	0	32756	
27	0	32740	
28	0	32776	
29	0	32716	
30	0	32716	
31	0	32568	
32	0	32492	
33	0	32468	
34	0	32628	
35	0	32765	
36	0	32944	
37	0	32968	
38	0	33046	
39	0	32868	
40	0	33008	
41	0	33092	
42	0	32866	
43	0	32921	
44	0	32844	
45	0	32776	
46	0	32792	
47	0	32726	
48	0	32740	
49	0	32692	
50	0	32668	
51	0	32768	
52	0	32600	
53	0	32636	
54	0	32536	
55	0	32644	
56	0	32685	
57	0	32752	
58	0	32778	
59	0	32774	
60	0	32980	
61	0	32996	
62	0	32937	
63	0	33032	
64	0	32924	
65	0	32812	
66	0	32784	
67	0	32764	
68	0	32744	
69	0	32712	
70	0	32756	
71	0	32692	
72	0	32700	
73	0	32612	
74	0	32500	
75	0	32708	
76	0	32668	
77	0	32820	
78	0	32820	
79	0	32796	
80	0	33009	
81	0	32972	
82	0	32900	
83	0	33044	
84	0	32959	
85	0	32852	
86	0	32736	
87	0	32732	
88	0	32809	
89	0	32704	
90	0	32724	
91	0	32560	
92	0	32676	
93	0	32720	
94	0	32638	
95	0	32584	
96	0	32724	
97	0	32812	
98	0	32804	
99	0	32736	
100	0	33028	
101	0	33060	
102	0	32920	
103	0	32988	
104	0	32920	
105	0	32808	
106	0	32792	
107	0	32740	
108	0	32720	
109	0	32696	
110	0	32800	
111	0	32770	
112	0	32708	
113	0	32576	
114	0	32336	
115	0	32500	
116	0	32584	
117	0	32688	
118	0	32920	
119	0	32952	
120	0	33007	
121	0	33140	
122	0	33040	
123	0	33052	
124	0	32892	
125	0	32860	
126	0	32868	
127	0	32820	
128	0	32672	
129	0	32724	
130	0	32620	
131	0	32488	
132	0	32584	
133	0	32608	
134	0	32480	
135	0	32628	
136	0	32704	
137	0	32877	
138	0	32788	
139	0	32836	
140	0	32884	
141	0	32908	
142	0	32877	
143	0	32988	
144	0	32888	
145	0	32852	
146	0	32840	
147	0	32844	
148	0	32884	
149	0	32948	
150	0	32904	
151	0	32545	
152	0	32384	
153	0	32420	
154	0	32420	
155	0	32572	
156	0	32632	
157	0	32732	
158	0	32686	
159	0	32768	
160	0	33036	
161	0	33148	
162	0	33084	
163	0	33073	
164	0	32925	
165	0	32844	
166	0	32772	
167	0	32712	
168	0	32704	
169	0	32784	
170	0	32760	
171	0	32568	
172	0	32632	
173	0	32584	
174	0	32548	
175	0	32568	
176	0	32656	
177	0	32700	
178	0	32980	
179	0	33020	
180	0	33076	
181	0	33052	
182	0	32932	
183	0	33004	
184	0	32874	
185	0	32808	
186	0	32832	
187	0	32849	
188	0	32552	
189	0	32572	
190	0	32584	
191	0	32520	
192	0	32672	
193	0	32734	
194	0	32576	
195	0	32668	
196	0	32740	
197	0	32894	
198	0	32928	
199	0	32928	
200	0	33056	
201	0	33072	
202	0	32852	
203	0	32901	
204	0	32776	
205	0	32720	
206	0	32632	
207	0	32760	
208	0	32912	
209	0	32828	
210	0	32801	
211	0	32744	
212	0	32685	
213	0	32556	
214	0	32425	
215	0	32556	
216	0	32676	
217	0	32712	
218	0	32752	
219	0	32682	
220	0	32872	
221	0	32948	
222	0	32876	
223	0	33064	
224	0	32962	
225	0	32884	
226	0	32816	
227	0	32776	
228	0	32804	
229	0	32688	
230	0	32640	
231	0	32572	
232	0	32664	
233	0	32648	
234	0	32700	
235	0	32644	
236	0	32556	
237	0	32671	
238	0	32773	
239	0	32909	
240	0	32956	
241	0	33040	
242	0	33024	
243	0	33180	
244	0	33084	
245	0	32984	
246	0	32688	
247	0	32624	
248	0	32668	
249	0	32761	
250	0	32732	
251	0	32548	
252	0	32544	
253	0	32617	
254	0	32625	
255	0	32668	
256	0	32800	
257	0	32864	
258	0	32792	
259	0	32784	
260	0	32944	
261	0	32957	
262	0	32958	
263	0	33096	
264	0	32896	
265	0	32796	
266	0	32780	
267	0	32684	
268	0	32660	
269	0	32620	
270	0	32556	
271	0	32564	
272	0	32740	
273	0	32668	
274	0	32532	
275	0	32516	
276	0	32748	
277	0	32908	
278	0	32720	
279	0	32776	
280	0	33000	
281	0	33028	
282	0	33228	
283	0	33252	
284	0	32844	
285	0	32884	
286	0	32952	
287	0	32936	
288	0	32734	
289	0	32532	
290	0	32492	
291	0	32599	
292	0	32644	
293	0	32600	
294	0	32384	
295	0	32528	
296	0	32681	
297	0	32752	
298	0	32720	
299	0	32798	
300	0	33016	
301	0	33125	
302	0	33108	
303	0	33108	
304	0	32886	
305	0	32775	
306	0	32664	
307	0	32700	
308	0	32732	
309	0	32792	
310	0	32804	
311	0	32710	
312	0	32708	
313	0	32644	
314	0	32584	
315	0	32604	
316	0	32604	
317	0	32748	
318	0	32765	
319	0	32924	
320	0	33076	
321	0	32969	
322	0	32792	
323	0	32984	
324	0	32868	
325	0	32808	
326	0	32745	
327	0	32772	
328	0	32772	
329	0	32820	
330	0	32740	
331	0	32680	
332	0	32644	
333	0	32560	
334	0	32546	
335	0	32684	
336	0	32705	
337	0	32836	
338	0	32936	
339	0	32952	
340	0	33016	
341	0	33064	
342	0	32928	
343	0	32932	
344	0	32816	
345	0	32800	
346	0	32820	
347	0	32724	
348	0	32744	
349	0	32676	
350	0	32556	
351	0	32572	
352	0	32716	
353	0	32764	
354	0	32724	
355	0	32903	
356	0	32840	
357	0	32744	
358	0	32744	
359	0	32808	
360	0	32944	
361	0	32968	
362	0	32872	
363	0	32880	
364	0	32784	
365	0	32828	
366	0	32904	
367	0	32760	
368	0	32741	
369	0	32664	
370	0	32528	
371	0	32592	
372	0	32664	
373	0	32628	
374	0	32672	
375	0	32688	
376	0	32676	
377	0	32833	
378	0	32800	
379	0	32725	
380	0	32980	
381	0	32964	
382	0	32932	
383	0	33084	
384	0	32932	
385	0	33044	
386	0	32972	
387	0	32816	
388	0	32760	
389	0	32664	
390	0	32540	
391	0	32456	
392	0	32536	
393	0	32688	
394	0	32612	
395	0	32724	
396	0	32760	
397	0	32772	
398	0	32796	
399	0	32886	
400	0	33176	
401	0	33012	
402	0	32916	
403	0	33020	
404	0	32864	
405	0	32760	
406	0	32760	
407	0	32740	
408	0	32621	
409	0	32660	
410	0	32652	
411	0	32600	
412	0	32656	
413	0	32632	
414	0	32541	
415	0	32676	
416	0	32725	
417	0	32858	
418	0	32884	
419	0	32972	
420	0	33092	
421	0	33128	
422	0	32982	
423	0	32865	
424	0	32745	
425	0	32796	
426	0	32720	
427	0	32680	
428	0	32645	
429	0	32776	
430	0	32692	
431	0	32768	
432	0	32820	
433	0	32631	
434	0	32564	
435	0	32654	
436	0	32717	
437	0	32772	
438	0	32833	
439	0	32920	
440	0	33012	
441	0	32932	
442	0	32872	
443	0	32924	
444	0	32928	
445	0	32872	
446	0	32804	
447	0	32808	
448	0	32744	
449	0	32804	
450	0	32704	
451	0	32524	
452	0	32484	
453	0	32516	
454	0	32544	
455	0	32740	
456	0	32870	
457	0	32812	
458	0	32736	
459	0	32848	
460	0	33044	
461	0	32996	
462	0	32924	
463	0	32956	
464	0	32864	
465	0	32777	
466	0	32717	
467	0	32822	
468	0	32752	
469	0	32784	
470	0	32855	
471	0	32712	
472	0	32676	
473	0	32544	
474	0	32544	
475	0	32537	
476	0	32632	
477	0	32648	
478	0	32804	
479	0	33140	
480	0	33364	
481	0	33156	
482	0	32988	
483	0	32948	
484	0	32832	
485	0	32680	
486	0	32639	
487	0	32620	
488	0	32672	
489	0	32772	
490	0	32744	
491	0	32700	
492	0	32766	
493	0	32570	
494	0	32600	
495	0	32628	
496	0	32640	
497	0	32728	
498	0	32801	
499	0	32954	
500	0	32984	
501	0	32952	
502	0	32948	
503	0	32972	
504	0	32928	
505	0	32841	
506	0	32992	
507	0	32840	
508	0	32686	
509	0	32589	
510	0	32672	
511	0	32632	
512	0	32648	
513	0	32612	
514	0	32601	
515	0	32685	
516	0	32680	
517	0	32764	
518	0	32636	
519	0	32776	
520	0	32976	
521	0	33204	
522	0	33216	
523	0	33118	
524	0	32996	
525	0	32892	
526	0	32788	
527	0	32704	
528	0	32588	
529	0	32624	
530	0	32558	
531	0	32644	
532	0	32680	
533	0	32726	
534	0	32669	
535	0	32528	
536	0	32586	
537	0	32708	
538	0	32784	
539	0	33028	
540	0	33052	
541	0	33124	
542	0	33092	
543	0	32957	
544	0	32708	
545	0	32676	
546	0	32648	
547	0	32700	
548	0	32756	
549	0	32724	
550	0	32788	
551	0	32856	
552	0	32856	
553	0	32620	
554	0	32520	
555	0	32560	
556	0	32564	
557	0	32692	
558	0	32736	
559	0	32880	
560	0	32984	
561	0	32916	
562	0	32924	
563	0	32984	
564	0	32964	
565	0	32860	
566	0	32848	
567	0	32800	
568	0	32708	
569	0	32680	
570	0	32632	
571	0	32489	
572	0	32636	
573	0	32620	
574	0	32772	
575	0	32868	
576	0	32944	
577	0	32732	
578	0	32620	
579	0	32728	
580	0	32840	
581	0	32904	
582	0	32988	
583	0	33056	
584	0	32912	
585	0	32692	
586	0	32645	
587	0	32672	
588	0	32788	
589	0	32764	
590	0	32668	
591	0	32684	
592	0	32868	
593	0	32609	
594	0	32661	
595	0	32804	
596	0	32732	
597	0	32708	
598	0	32720	
599	0	32844	
600	0	32940	
601	0	32964	
602	0	33144	
603	0	33092	
604	0	32836	
605	0	32868	
606	0	32836	
607	0	32716	
608	0	32728	
609	0	32696	
610	0	32663	
611	0	32548	
612	0	32508	
613	0	32544	
614	0	32572	
615	0	32697	
616	0	32744	
617	0	32804	
618	0	32844	
619	0	32917	
620	0	33060	
621	0	33060	
622	0	33036	
623	0	33044	
624	0	32892	
625	0	32784	
626	0	32780	
627	0	32744	
628	0	32756	
629	0	32709	
630	0	32668	
631	0	32644	
632	0	32616	
633	0	32558	
634	0	32604	
635	0	32648	
636	0	32688	
637	0	32824	
638	0	32716	
639	0	32908	
640	0	32940	
641	0	32980	
642	0	32988	
643	0	32980	
644	0	32948	
645	0	32893	
646	0	32856	
647	0	32804	
648	0	32720	
649	0	32736	
650	0	32685	
651	0	32712	
652	0	32764	
653	0	32492	
654	0	32544	
655	0	32396	
656	0	32485	
657	0	32696	
658	0	32688	
659	0	32940	
660	0	33132	
661	0	33188	
662	0	33268	
663	0	33328	
664	0	33053	
665	0	32660	
666	0	32528	
667	0	32688	
668	0	32672	
669	0	32624	
670	0	32660	
671	0	32517	
672	0	32588	
673	0	32584	
674	0	32724	
675	0	32724	
676	0	32720	
677	0	32738	
678	0	32712	
679	0	32804	
680	0	32944	
681	0	32968	
682	0	33008	
683	0	33020	
684	0	32948	
685	0	32816	
686	0	32760	
687	0	32705	
688	0	32676	
689	0	32728	
690	0	32748	
691	0	32756	
692	0	32665	
693	0	32633	
694	0	32608	
695	0	32684	
696	0	32748	
697	0	32744	
698	0	32640	
699	0	32844	
700	0	32972	
701	0	33128	
702	0	33204	
703	0	32996	
704	0	32752	
705	0	32672	
706	0	32640	
707	0	32677	
708	0	32804	
709	0	32726	
710	0	32668	
711	0	32630	
712	0	32732	
713	0	32640	
714	0	32672	
715	0	32680	
716	0	32744	
717	0	32801	
718	0	32808	
719	0	32888	
720	0	32984	
721	0	33041	
722	0	33052	
723	0	32996	
724	0	32833	
725	0	32672	
726	0	32756	
727	0	32820	
728	0	32736	
729	0	32713	
730	0	32652	
731	0	32572	
732	0	32700	
733	0	32640	
734	0	32616	
735	0	32676	
736	0	32958	
737	0	32940	
738	0	32596	
739	0	32680	
740	0	32856	
741	0	32840	
742	0	32960	
743	0	32942	
744	0	33032	
745	0	32816	
746	0	32580	
747	0	32588	
748	0	32653	
749	0	32668	
750	0	32720	
751	0	32792	
752	0	32909	
753	0	32753	
754	0	32752	
755	0	32760	
756	0	32652	
757	0	32668	
758	0	32664	
759	0	32908	
760	0	32972	
761	0	33088	
762	0	33088	
763	0	33010	
764	0	32940	
765	0	32872	
766	0	32716	
767	0	32628	
768	0	32624	
769	0	32657	
770	0	32732	
771	0	32716	
772	0	32672	
773	0	32572	
774	0	32628	
775	0	32577	
776	0	32756	
777	0	32880	
778	0	32712	
779	0	32808	
780	0	32876	
781	0	32816	
782	0	33037	
783	0	32974	
784	0	32932	
785	0	32908	
786	0	32880	
787	0	32832	
788	0	32704	
789	0	32700	
790	0	32612	
791	0	32608	
792	0	32621	
793	0	32508	
794	0	32581	
795	0	32644	
796	0	32800	
797	0	32884	
798	0	32840	
799	0	32998	
800	0	33036	
801	0	32748	
802	0	32868	
803	0	32916	
804	0	32932	
805	0	32948	
806	0	32862	
807	0	32700	
808	0	32664	
809	0	32629	
810	0	32660	
811	0	32596	
812	0	32538	
813	0	32472	
814	0	32604	
815	0	32772	
816	0	32840	
817	0	32832	
818	0	32704	
819	0	32940	
820	0	33092	
821	0	32972	
822	0	33204	
823	0	33228	
824	0	33016	
825	0	32852	
826	0	32832	
827	0	32588	
828	0	32444	
829	0	32512	
830	0	32412	
831	0	32504	
832	0	32636	
833	0	32568	
834	0	32576	
835	0	32736	
836	0	32734	
837	0	32820	
838	0	32756	
839	0	32925	
840	0	33032	
841	0	33104	
842	0	33136	
843	0	32980	
844	0	32896	
845	0	32866	
846	0	32824	
847	0	32744	
848	0	32764	
849	0	32661	
850	0	32644	
851	0	32576	
852	0	32532	
853	0	32600	
854	0	32752	
855	0	32988	
856	0	32936	
857	0	32676	
858	0	32698	
859	0	32804	
860	0	32900	
861	0	32836	
862	0	32948	
863	0	33089	
864	0	32980	
865	0	32909	
866	0	32822	
867	0	32704	
868	0	32736	
869	0	32610	
870	0	32632	
871	0	32665	
872	0	32600	
873	0	32568	
874	0	32672	
875	0	32776	
876	0	32784	
877	0	32712	
878	0	32788	
879	0	32904	
880	0	33012	
881	0	33012	
882	0	33060	
883	0	32852	
884	0	32762	
885	0	32724	
886	0	32752	
887	0	32640	
888	0	32712	
889	0	32628	
890	0	32596	
891	0	32576	
892	0	32568	
893	0	32576	
894	0	32640	
895	0	32569	
896	0	32748	
897	0	32924	
898	0	33114	
899	0	33244	
900	0	33128	
901	0	33148	
902	0	33092	
903	0	32768	
904	0	32740	
905	0	32748	
906	0	32732	
907	0	32608	
908	0	32528	
909	0	32553	
910	0	32652	
911	0	32688	
912	0	32676	
913	0	32540	
914	0	32616	
915	0	32638	
916	0	32782	
917	0	32844	
918	0	32776	
919	0	33068	
920	0	33056	
921	0	33033	
922	0	33008	
923	0	32956	
924	0	32900	
925	0	32804	
926	0	32716	
927	0	32720	
928	0	32726	
929	0	32636	
930	0	32644	
931	0	32628	
932	0	32724	
933	0	32480	
934	0	32544	
935	0	32648	
936	0	32708	
937	0	32836	
938	0	32865	
939	0	33064	
940	0	33172	
941	0	33168	
942	0	33212	
943	0	32902	
944	0	32764	
945	0	32600	
946	0	32632	
947	0	32712	
948	0	32768	
949	0	32754	
950	0	32640	
951	0	32649	
952	0	32640	
953	0	32532	
954	0	32560	
955	0	32596	
956	0	32733	
957	0	32852	
958	0	32800	
959	0	32992	
960	0	32954	
961	0	32964	
962	0	33056	
963	0	33044	
964	0	32897	
965	0	32828	
966	0	32741	
967	0	32676	
968	0	32686	
969	0	32672	
970	0	32645	
971	0	32737	
972	0	32662	
973	0	32465	
974	0	32432	
975	0	32608	
976	0	32869	
977	0	32946	
978	0	32880	
979	0	33052	
980	0	33112	
981	0	32844	
982	0	32876	
983	0	32872	
984	0	33008	
985	0	32940	
986	0	32744	
987	0	32552	
988	0	32592	
989	0	32636	
990	0	32604	
991	0	32724	
992	0	32792	
993	0	32568	
994	0	32537	
995	0	32556	
996	0	32764	
997	0	32690	
998	0	32752	
999	0	32932	
1000	0	32952	
1001	0	32984	
1002	0	33136	
1003	0	32904	
1004	0	32912	
1005	0	32836	
1006	0	32893	
1007	0	32832	
1008	0	32796	
1009	0	32622	
1010	0	32536	
1011	0	32560	
1012	0	32588	
1013	0	32568	
1014	0	32672	
1015	0	32736	
1016	0	32780	
1017	0	32802	
1018	0	32788	
1019	0	32932	
1020	0	32988	
1021	0	32924	
1022	0	32996	
1023	0	32964	
1024	0	32868	
1025	0	32764	
1026	0	32740	
1027	0	32880	
1028	0	32892	
1029	0	32686	
1030	0	32544	
1031	0	32672	
1032	0	32604	
1033	0	32584	
1034	0	32612	
1035	0	32592	
1036	0	32612	
1037	0	32772	
1038	0	32804	
1039	0	32928	
1040	0	33046	
1041	0	32900	
1042	0	33092	
1043	0	32949	
1044	0	32832	
1045	0	32813	
1046	0	32864	
1047	0	32737	
1048	0	32556	
1049	0	32700	
1050	0	32615	
1051	0	32690	
1052	0	32652	
1053	0	32545	
1054	0	32669	
1055	0	32684	
1056	0	32784	
1057	0	32784	
1058	0	32804	
1059	0	32968	
1060	0	33012	
1061	0	33092	
1062	0	33144	
1063	0	32878	
1064	0	32768	
1065	0	32709	
1066	0	32608	
1067	0	32484	
1068	0	32522	
1069	0	32664	
1070	0	32758	
1071	0	32864	
1072	0	33016	
1073	0	32892	
1074	0	32649	
1075	0	32600	
1076	0	32656	
1077	0	32510	
1078	0	32629	
1079	0	32876	
1080	0	33048	
1081	0	32936	
1082	0	33036	
1083	0	32952	
1084	0	32904	
1085	0	32920	
1086	0	32876	
1087	0	32764	
1088	0	32720	
1089	0	32616	
1090	0	32596	
1091	0	32768	
1092	0	32812	
1093	0	32604	
1094	0	32636	
1095	0	32744	
1096	0	32640	
1097	0	32696	
1098	0	32756	
1099	0	32924	
1100	0	32892	
1101	0	32808	
1102	0	32892	
1103	0	32992	
1104	0	32808	
1105	0	32788	
1106	0	32760	
1107	0	32720	
1108	0	32820	
1109	0	32860	
1110	0	32768	
1111	0	32780	
1112	0	32700	
1113	0	32560	
1114	0	32512	
1115	0	32528	
1116	0	32728	
1117	0	32876	
1118	0	32828	
1119	0	32944	
1120	0	33092	
1121	0	32996	
1122	0	32864	
1123	0	32949	
1124	0	32774	
1125	0	32632	
1126	0	32736	
1127	0	32720	
1128	0	32673	
1129	0	32705	
1130	0	32736	
1131	0	32800	
1132	0	32644	
1133	0	32528	
1134	0	32609	
1135	0	32648	
1136	0	32772	
1137	0	32756	
1138	0	32852	
1139	0	33056	
1140	0	33044	
1141	0	32964	
1142	0	33116	
1143	0	32933	
1144	0	32820	
1145	0	32694	
1146	0	32676	
1147	0	32684	
1148	0	32720	
1149	0	32724	
1150	0	32676	
1151	0	32732	
1152	0	32552	
1153	0	32536	
1154	0	32710	
1155	0	32896	
1156	0	32884	
1157	0	32784	
1158	0	32785	
1159	0	32844	
1160	0	32956	
1161	0	32844	
1162	0	32993	
1163	0	32949	
1164	0	32772	
1165	0	32764	
1166	0	32738	
1167	0	32704	
1168	0	32646	
1169	0	32670	
1170	0	32628	
1171	0	32728	
1172	0	32670	
1173	0	32624	
1174	0	32580	
1175	0	32596	
1176	0	32644	
1177	0	32756	
1178	0	32816	
1179	0	32992	
1180	0	33092	
1181	0	33120	
1182	0	33092	
1183	0	32974	
1184	0	32858	
1185	0	32758	
1186	0	32740	
1187	0	32852	
1188	0	32844	
1189	0	32536	
1190	0	32424	
1191	0	32540	
1192	0	32536	
1193	0	32584	
1194	0	32644	
1195	0	32652	
1196	0	32712	
1197	0	32796	
1198	0	32929	
1199	0	33048	
1200	0	33024	
1201	0	33028	
1202	0	32916	
1203	0	32872	
1204	0	32804	
1205	0	32796	
1206	0	32788	
1207	0	32752	
1208	0	32800	
1209	0	32764	
1210	0	32685	
1211	0	32732	
1212	0	32628	
1213	0	32600	
1214	0	32580	
1215	0	32624	
1216	0	32712	
1217	0	32776	
1218	0	32788	
1219	0	33024	
1220	0	32954	
1221	0	32900	
1222	0	32988	
1223	0	32848	
1224	0	32860	
1225	0	32764	
1226	0	32732	
1227	0	32740	
1228	0	32720	
1229	0	32580	
1230	0	32660	
1231	0	32748	
1232	0	32625	
1233	0	32545	
1234	0	32688	
1235	0	32932	
1236	0	32941	
1237	0	32928	
1238	0	32772	
1239	0	32836	
1240	0	33000	
1241	0	33080	
1242	0	33136	
1243	0	32804	
1244	0	32756	
1245	0	32656	
1246	0	32636	
1247	0	32732	
1248	0	32688	
1249	0	32628	
1250	0	32628	
1251	0	32592	
1252	0	32528	
1253	0	32648	
1254	0	32688	
1255	0	32638	
1256	0	32832	
1257	0	32828	
1258	0	32940	
1259	0	33076	
1260	0	33076	
1261	0	33237	
1262	0	33100	
1263	0	32813	
1264	0	32704	
1265	0	32732	
1266	0	32812	
1267	0	32816	
1268	0	32788	
1269	0	32636	
1270	0	32636	
1271	0	32576	
1272	0	32524	
1273	0	32556	
1274	0	32584	
1275	0	32676	
1276	0	32726	
1277	0	32716	
1278	0	32900	
1279	0	32916	
1280	0	32944	
1281	0	32988	
1282	0	33104	
1283	0	32968	
1284	0	32868	
1285	0	32624	
1286	0	32644	
1287	0	32784	
1288	0	32836	
1289	0	32744	
1290	0	32740	
1291	0	32724	
1292	0	32672	
1293	0	32584	
1294	0	32576	
1295	0	32620	
1296	0	32704	
1297	0	32704	
1298	0	32912	
1299	0	32944	
1300	0	32964	
1301	0	32816	
1302	0	32936	
1303	0	32964	
1304	0	32960	
1305	0	32896	
1306	0	32860	
1307	0	32902	
1308	0	32568	
1309	0	32564	
1310	0	32716	
1311	0	32808	
1312	0	32612	
1313	0	32592	
1314	0	32520	
1315	0	32600	
1316	0	32668	
1317	0	32720	
1318	0	32909	
1319	0	32976	
1320	0	33000	
1321	0	32996	
1322	0	33024	
1323	0	32920	
1324	0	32860	
1325	0	32876	
1326	0	32856	
1327	0	32772	
1328	0	32654	
1329	0	32640	
1330	0	32676	
1331	0	32612	
1332	0	32505	
1333	0	32488	
1334	0	32504	
1335	0	32748	
1336	0	32856	
1337	0	32864	
1338	0	32956	
1339	0	33080	
1340	0	33102	
1341	0	33024	
1342	0	32990	
1343	0	32892	
1344	0	32717	
1345	0	32676	
1346	0	32680	
1347	0	32776	
1348	0	32680	
1349	0	32560	
1350	0	32496	
1351	0	32656	
1352	0	32712	
1353	0	32784	
1354	0	32708	
1355	0	32540	
1356	0	32796	
1357	0	32769	
1358	0	32854	
1359	0	32952	
1360	0	32900	
1361	0	33036	
1362	0	32992	
1363	0	32893	
1364	0	32900	
1365	0	32856	
1366	0	32804	
1367	0	32704	
1368	0	32768	
1369	0	32705	
1370	0	32768	
1371	0	32774	
1372	0	32612	
1373	0	32524	
1374	0	32512	
1375	0	32600	
1376	0	32732	
1377	0	32788	
1378	0	32876	
1379	0	32976	
1380	0	33052	
1381	0	33088	
1382	0	33004	
1383	0	32880	
1384	0	32776	
1385	0	32740	
1386	0	32528	
1387	0	32652	
1388	0	32673	
1389	0	32672	
1390	0	32692	
1391	0	32830	
1392	0	32644	
1393	0	32540	
1394	0	32536	
1395	0	32584	
1396	0	32636	
1397	0	32728	
1398	0	32916	
1399	0	33084	
1400	0	33193	
1401	0	33208	
1402	0	32988	
1403	0	32824	
1404	0	32820	
1405	0	32796	
1406	0	32748	
1407	0	32664	
1408	0	32680	
1409	0	32660	
1410	0	32628	
1411	0	32652	
1412	0	32524	
1413	0	32608	
1414	0	32596	
1415	0	32740	
1416	0	32780	
1417	0	32720	
1418	0	32800	
1419	0	32880	
1420	0	33012	
1421	0	33092	
1422	0	33088	
1423	0	32944	
1424	0	32768	
1425	0	32756	
1426	0	32664	
1427	0	32740	
1428	0	32588	
1429	0	32560	
1430	0	32512	
1431	0	32680	
1432	0	32596	
1433	0	32526	
1434	0	32692	
1435	0	32900	
1436	0	33200	
1437	0	32905	
1438	0	33022	
1439	0	33102	
1440	0	33068	
1441	0	33040	
1442	0	32776	
1443	0	32660	
1444	0	32712	
1445	0	32652	
1446	0	32668	
1447	0	32656	
1448	0	32720	
1449	0	32720	
1450	0	32712	
1451	0	32732	
1452	0	32500	
1453	0	32576	
1454	0	32566	
1455	0	32786	
1456	0	32864	
1457	0	32740	
1458	0	32916	
1459	0	33016	
1460	0	32992	
1461	0	32964	
1462	0	32956	
1463	0	32868	
1464	0	32824	
1465	0	32688	
1466	0	32757	
1467	0	32764	
1468	0	32676	
1469	0	32712	
1470	0	32736	
1471	0	32757	
1472	0	32600	
1473	0	32636	
1474	0	32600	
1475	0	32640	
1476	0	32728	
1477	0	32696	
1478	0	32876	
1479	0	33012	
1480	0	33076	
1481	0	33024	
1482	0	33008	
1483	0	32925	
1484	0	32848	
1485	0	32788	
1486	0	32760	
1487	0	32785	
1488	0	32704	
1489	0	32648	
1490	0	32629	
1491	0	32732	
1492	0	32544	
1493	0	32456	
1494	0	32616	
1495	0	32856	
1496	0	32852	
1497	0	32768	
1498	0	32900	
1499	0	32988	
1500	0	32980	
1501	0	32873	
1502	0	33034	
1503	0	32769	
1504	0	32696	
1505	0	32732	
1506	0	32720	
1507	0	32720	
1508	0	32696	
1509	0	32712	
1510	0	32644	
1511	0	32604	
1512	0	32516	
1513	0	32500	
1514	0	32672	
1515	0	32736	
1516	0	32824	
1517	0	32865	
1518	0	32920	
1519	0	33096	
1520	0	33116	
1521	0	33064	
1522	0	33080	
1523	0	32908	
1524	0	32732	
1525	0	32724	
1526	0	32640	
1527	0	32720	
1528	0	32806	
1529	0	32696	
1530	0	32641	
1531	0	32576	
1532	0	32452	
1533	0	32544	
1534	0	32728	
1535	0	32896	
1536	0	32806	
1537	0	32724	
1538	0	33032	
1539	0	33100	
1540	0	33184	
1541	0	33156	
1542	0	33020	
1543	0	32852	
1544	0	32552	
1545	0	32637	
1546	0	32524	
1547	0	32708	
1548	0	32808	
1549	0	32752	
1550	0	32624	
1551	0	32623	
1552	0	32448	
1553	0	32608	
1554	0	32660	
1555	0	32688	
1556	0	32812	
1557	0	32652	
1558	0	32993	
1559	0	33122	
1560	0	33012	
1561	0	33008	
1562	0	33037	
1563	0	32877	
1564	0	32720	
1565	0	32692	
1566	0	32652	
1567	0	32692	
1568	0	32850	
1569	0	32784	
1570	0	32676	
1571	0	32692	
1572	0	32720	
1573	0	32708	
1574	0	32556	
1575	0	32580	
1576	0	32604	
1577	0	32660	
1578	0	32856	
1579	0	33040	
1580	0	32980	
1581	0	33116	
1582	0	33056	
1583	0	32880	
1584	0	32868	
1585	0	32768	
1586	0	32712	
1587	0	32804	
1588	0	32732	
1589	0	32688	
1590	0	32726	
1591	0	32728	
1592	0	32588	
1593	0	32612	
1594	0	32621	
1595	0	32772	
1596	0	32724	
1597	0	32716	
1598	0	32968	
1599	0	33060	
1600	0	32988	
1601	0	32916	
1602	0	32872	
1603	0	32876	
1604	0	32850	
1605	0	32848	
1606	0	32700	
1607	0	32712	
1608	0	32664	
1609	0	32672	
1610	0	32556	
1611	0	32638	
1612	0	32612	
1613	0	32784	
1614	0	32713	
1615	0	32864	
1616	0	32760	
1617	0	32712	
1618	0	33056	
1619	0	32944	
1620	0	32804	
1621	0	32836	
1622	0	32902	
1623	0	32936	
1624	0	32828	
1625	0	32719	
1626	0	32820	
1627	0	32792	
1628	0	32800	
1629	0	32728	
1630	0	32644	
1631	0	32596	
1632	0	32494	
1633	0	32548	
1634	0	32580	
1635	0	32764	
1636	0	32992	
1637	0	32968	
1638	0	33072	
1639	0	33128	
1640	0	33004	
1641	0	32832	
1642	0	32724	
1643	0	32684	
1644	0	32800	
1645	0	32808	
1646	0	32808	
1647	0	32872	
1648	0	32804	
1649	0	32652	
1650	0	32665	
1651	0	32688	
1652	0	32532	
1653	0	32517	
1654	0	32685	
1655	0	32690	
1656	0	32780	
1657	0	32744	
1658	0	32960	
1659	0	33008	
1660	0	33004	
1661	0	32990	
1662	0	32932	
1663	0	32892	
1664	0	32780	
1665	0	32832	
1666	0	32840	
1667	0	32736	
1668	0	32736	
1669	0	32612	
1670	0	32584	
1671	0	32665	
1672	0	32624	
1673	0	32580	
1674	0	32596	
1675	0	32644	
1676	0	32780	
1677	0	32776	
1678	0	32957	
1679	0	32904	
1680	0	33016	
1681	0	33044	
1682	0	33132	
1683	0	32960	
1684	0	32824	
1685	0	32824	
1686	0	32736	
1687	0	32750	
1688	0	32696	
1689	0	32656	
1690	0	32628	
1691	0	32596	
1692	0	32476	
1693	0	32576	
1694	0	32608	
1695	0	32636	
1696	0	32796	
1697	0	32705	
1698	0	32880	
1699	0	33020	
1700	0	32956	
1701	0	33020	
1702	0	33016	
1703	0	32957	
1704	0	32877	
1705	0	32892	
1706	0	32728	
1707	0	32628	
1708	0	32636	
1709	0	32612	
1710	0	32612	
1711	0	32744	
1712	0	32604	
1713	0	32628	
1714	0	32656	
1715	0	32740	
1716	0	32724	
1717	0	32740	
1718	0	33012	
1719	0	33064	
1720	0	32996	
1721	0	33006	
1722	0	32932	
1723	0	32952	
1724	0	32712	
1725	0	32740	
1726	0	32640	
1727	0	32792	
1728	0	32668	
1729	0	32600	
1730	0	32612	
1731	0	32708	
1732	0	32697	
1733	0	32797	
1734	0	32648	
1735	0	32796	
1736	0	32876	
1737	0	32788	
1738	0	32903	
1739	0	32870	
1740	0	32792	
1741	0	32916	
1742	0	32828	
1743	0	32888	
1744	0	32968	
1745	0	32932	
1746	0	32749	
1747	0	32696	
1748	0	32641	
1749	0	32572	
1750	0	32584	
1751	0	32632	
1752	0	32596	
1753	0	32636	
1754	0	32852	
1755	0	32820	
1756	0	32838	
1757	0	32760	
1758	0	32948	
1759	0	32996	
1760	0	32896	
1761	0	32924	
1762	0	32876	
1763	0	32908	
1764	0	32868	
1765	0	32740	
1766	0	32704	
1767	0	32700	
1768	0	32668	
1769	0	32621	
1770	0	32500	
1771	0	32685	
1772	0	32558	
1773	0	32598	
1774	0	32620	
1775	0	32696	
1776	0	32868	
1777	0	32824	
1778	0	32984	
1779	0	33052	
1780	0	33028	
1781	0	33120	
1782	0	32984	
1783	0	32848	
1784	0	32820	
1785	0	32768	
1786	0	32656	
1787	0	32656	
1788	0	32676	
1789	0	32628	
1790	0	32596	
1791	0	32676	
1792	0	32620	
1793	0	32684	
1794	0	32744	
1795	0	32720	
1796	0	32799	
1797	0	32845	
1798	0	32896	
1799	0	32908	
1800	0	32940	
1801	0	32996	
1802	0	32848	
1803	0	32904	
1804	0	32848	
1805	0	32868	
1806	0	32768	
1807	0	32784	
1808	0	32664	
1809	0	32644	
1810	0	32580	
1811	0	32528	
1812	0	32588	
1813	0	32629	
1814	0	32672	
1815	0	32844	
1816	0	32860	
1817	0	32760	
1818	0	32900	
1819	0	32980	
1820	0	33008	
1821	0	33038	
1822	0	32960	
1823	0	32756	
1824	0	32705	
1825	0	32780	
1826	0	32808	
1827	0	32725	
1828	0	32820	
1829	0	32812	
1830	0	32680	
1831	0	32484	
1832	0	32412	
1833	0	32564	
1834	0	32612	
1835	0	32752	
1836	0	32868	
1837	0	32868	
1838	0	32984	
1839	0	32996	
1840	0	32952	
1841	0	32986	
1842	0	32844	
1843	0	32740	
1844	0	32677	
1845	0	32684	
1846	0	32784	
1847	0	32820	
1848	0	32845	
1849	0	32736	
1850	0	32636	
1851	0	32708	
1852	0	32632	
1853	0	32656	
1854	0	32576	
1855	0	32668	
1856	0	32647	
1857	0	32748	
1858	0	32940	
1859	0	33024	
1860	0	32998	
1861	0	32984	
1862	0	32912	
1863	0	32886	
1864	0	32768	
1865	0	32766	
1866	0	32736	
1867	0	32720	
1868	0	32728	
1869	0	32660	
1870	0	32636	
1871	0	32640	
1872	0	32612	
1873	0	32604	
1874	0	32664	
1875	0	32760	
1876	0	32800	
1877	0	32716	
1878	0	33081	
1879	0	33064	
1880	0	32860	
1881	0	33040	
1882	0	32964	
1883	0	32936	
1884	0	32804	
1885	0	32752	
1886	0	32712	
1887	0	32740	
1888	0	32657	
1889	0	32680	
1890	0	32628	
1891	0	32724	
1892	0	32484	
1893	0	32576	
1894	0	32652	
1895	0	32700	
1896	0	32782	
1897	0	32776	
1898	0	32916	
1899	0	33048	
1900	0	33092	
1901	0	33148	
1902	0	32960	
1903	0	32988	
1904	0	32900	
1905	0	32836	
1906	0	32776	
1907	0	32772	
1908	0	32560	
1909	0	32532	
1910	0	32548	
1911	0	32580	
1912	0	32464	
1913	0	32548	
1914	0	32613	
1915	0	32740	
1916	0	32888	
1917	0	32820	
1918	0	32996	
1919	0	32980	
1920	0	33036	
1921	0	33128	
1922	0	32976	
1923	0	32832	
1924	0	32768	
1925	0	32756	
1926	0	32664	
1927	0	32548	
1928	0	32517	
1929	0	32638	
1930	0	32712	
1931	0	32796	
1932	0	32720	
1933	0	32704	
1934	0	32621	
1935	0	32596	
1936	0	32656	
1937	0	32864	
1938	0	32956	
1939	0	33016	
1940	0	32948	
1941	0	33112	
1942	0	32948	
1943	0	32928	
1944	0	32792	
1945	0	32876	
1946	0	32788	
1947	0	32644	
1948	0	32568	
1949	0	32676	
1950	0	32600	
1951	0	32708	
1952	0	32480	
1953	0	32608	
1954	0	32728	
1955	0	32756	
1956	0	32726	
1957	0	32828	
1958	0	32992	
1959	0	33068	
1960	0	32936	
1961	0	33070	
1962	0	32897	
1963	0	32756	
1964	0	32692	
1965	0	32696	
1966	0	32716	
1967	0	32724	
1968	0	32677	
1969	0	32716	
1970	0	32776	
1971	0	32852	
1972	0	32712	
1973	0	32713	
1974	0	32636	
1975	0	32700	
1976	0	32772	
1977	0	32798	
1978	0	32996	
1979	0	32984	
1980	0	32916	
1981	0	33037	
1982	0	32840	
1983	0	32720	
1984	0	32660	
1985	0	32662	
1986	0	32768	
1987	0	32740	
1988	0	32742	
1989	0	32700	
1990	0	32684	
1991	0	32648	
1992	0	32612	
1993	0	32663	
1994	0	32568	
1995	0	32621	
1996	0	32656	
1997	0	32796	
1998	0	32924	
1999	0	32992	
2000	0	32948	
2001	0	33116	
2002	0	33046	
2003	0	33140	
2004	0	32980	
2005	0	32926	
2006	0	32748	
2007	0	32796	
2008	0	32720	
2009	0	32568	
2010	0	32568	
2011	0	32500	
2012	0	32484	
2013	0	32500	
2014	0	32570	
2015	0	32672	
2016	0	32752	
2017	0	32812	
2018	0	33032	
2019	0	33096	
2020	0	33054	
2021	0	33120	
2022	0	32976	
2023	0	32904	
2024	0	32856	
2025	0	32800	
2026	0	32628	
2027	0	32564	
2028	0	32528	
2029	0	32608	
2030	0	32660	
2031	0	32652	
2032	0	32520	
2033	0	32628	
2034	0	32788	
2035	0	32808	
2036	0	32732	
2037	0	32716	
2038	0	33008	
2039	0	33188	
2040	0	33104	
2041	0	33112	
2042	0	32900	
2043	0	32801	
2044	0	32750	
2045	0	32713	
2046	0	32661	
2047	0	32676	
2048	0	32676	
2049	0	32668	
2050	0	32700	
2051	0	32624	
2052	0	32549	
2053	0	32628	
2054	0	32708	
2055	0	32660	
2056	0	32776	
2057	0	32876	
2058	0	32972	
2059	0	33014	
2060	0	32908	
2061	0	33068	
2062	0	32912	
2063	0	32834	
2064	0	32742	
2065	0	32713	
2066	0	32772	
2067	0	32740	
2068	0	32696	
2069	0	32788	
2070	0	32764	
2071	0	32764	
2072	0	32548	
2073	0	32584	
2074	0	32668	
2075	0	32741	
2076	0	32672	
2077	0	32774	
2078	0	32876	
2079	0	33022	
2080	0	32894	
2081	0	32960	
2082	0	32836	
2083	0	32768	
2084	0	32822	
2085	0	32876	
2086	0	32798	
2087	0	32712	
2088	0	32772	
2089	0	32600	
2090	0	32656	
2091	0	32648	
2092	0	32620	
2093	0	32684	
2094	0	32788	
2095	0	32708	
2096	0	32724	
2097	0	32838	
2098	0	32972	
2099	0	33016	
2100	0	32900	
2101	0	32904	
2102	0	32776	
2103	0	32784	
2104	0	32768	
2105	0	32764	
2106	0	32762	
2107	0	32658	
2108	0	32580	
2109	0	32676	
2110	0	32724	
2111	0	32660	
2112	0	32600	
2113	0	32652	
2114	0	32692	
2115	0	32708	
2116	0	32676	
2117	0	32700	
2118	0	32965	
2119	0	33044	
2120	0	33012	
2121	0	33012	
2122	0	32904	
2123	0	32948	
2124	0	32924	
2125	0	32996	
2126	0	32848	
2127	0	32712	
2128	0	32672	
2129	0	32645	
2130	0	32652	
2131	0	32644	
2132	0	32592	
2133	0	32512	
2134	0	32687	
2135	0	32780	
2136	0	32864	
2137	0	32904	
2138	0	33004	
2139	0	33029	
2140	0	33000	
2141	0	33018	
2142	0	32904	
2143	0	32792	
2144	0	32780	
2145	0	32680	
2146	0	32775	
2147	0	32724	
2148	0	32680	
2149	0	32662	
2150	0	32740	
2151	0	32624	
2152	0	32608	
2153	0	32569	
2154	0	32625	
2155	0	32636	
2156	0	32752	
2157	0	32776	
2158	0	32845	
2159	0	33017	
2160	0	33040	
2161	0	33073	
2162	0	33044	
2163	0	32928	
2164	0	32820	
2165	0	32788	
2166	0	32712	
2167	0	32676	
2168	0	32612	
2169	0	32576	
2170	0	32580	
2171	0	32536	
2172	0	32504	
2173	0	32592	
2174	0	32676	
2175	0	32832	
2176	0	32780	
2177	0	32896	
2178	0	32973	
2179	0	33021	
2180	0	33045	
2181	0	33021	
2182	0	32976	
2183	0	32877	
2184	0	32821	
2185	0	32728	
2186	0	32720	
2187	0	32788	
2188	0	32584	
2189	0	32500	
2190	0	32676	
2191	0	32584	
2192	0	32528	
2193	0	32528	
2194	0	32702	
2195	0	32788	
2196	0	32828	
2197	0	33068	
2198	0	33096	
2199	0	33088	
2200	0	33068	
2201	0	33008	
2202	0	32828	
2203	0	32692	
2204	0	32760	
2205	0	32608	
2206	0	32696	
2207	0	32800	
2208	0	32856	
2209	0	32716	
2210	0	32644	
2211	0	32324	
2212	0	32336	
2213	0	32564	
2214	0	32644	
2215	0	32760	
2216	0	32974	
2217	0	33232	
2218	0	33196	
2219	0	33176	
2220	0	32944	
2221	0	32956	
2222	0	32836	
2223	0	32736	
2224	0	32704	
2225	0	32560	
2226	0	32684	
2227	0	32712	
2228	0	32692	
2229	0	32692	
2230	0	32672	
2231	0	32636	
2232	0	32488	
2233	0	32612	
2234	0	32672	
2235	0	32788	
2236	0	32757	
2237	0	32937	
2238	0	33080	
2239	0	33021	
2240	0	33012	
2241	0	33070	
2242	0	33048	
2243	0	32876	
2244	0	32804	
2245	0	32632	
2246	0	32604	
2247	0	32644	
2248	0	32677	
2249	0	32648	
2250	0	32676	
2251	0	32516	
2252	0	32512	
2253	0	32624	
2254	0	32712	
2255	0	32820	
2256	0	32868	
2257	0	32924	
2258	0	33054	
2259	0	33072	
2260	0	32984	
2261	0	32960	
2262	0	32858	
2263	0	32780	
2264	0	32796	
2265	0	32660	
2266	0	32740	
2267	0	32816	
2268	0	32752	
2269	0	32716	
2270	0	32596	
2271	0	32544	
2272	0	32564	
2273	0	32676	
2274	0	32653	
2275	0	32748	
2276	0	32780	
2277	0	32964	
2278	0	33209	
2279	0	33168	
2280	0	32996	
2281	0	32848	
2282	0	32732	
2283	0	32780	
2284	0	32724	
2285	0	32738	
2286	0	32808	
2287	0	32712	
2288	0	32681	
2289	0	32700	
2290	0	32676	
2291	0	32572	
2292	0	32596	
2293	0	32632	
2294	0	32753	
2295	0	32740	
2296	0	32680	
2297	0	32836	
2298	0	32978	
2299	0	33052	
2300	0	33116	
2301	0	33056	
2302	0	32908	
2303	0	32872	
2304	0	32704	
2305	0	32648	
2306	0	32700	
2307	0	32724	
2308	0	32740	
2309	0	32708	
2310	0	32836	
2311	0	32580	
2312	0	32500	
2313	0	32569	
2314	0	32645	
2315	0	32792	
2316	0	32692	
2317	0	32904	
2318	0	33008	
2319	0	33068	
2320	0	33000	
2321	0	32872	
2322	0	32772	
2323	0	32768	
2324	0	32868	
2325	0	32816	
2326	0	32748	
2327	0	32696	
2328	0	32592	
2329	0	32600	
2330	0	32644	
2331	0	32512	
2332	0	32576	
2333	0	32828	
2334	0	32860	
2335	0	32788	
2336	0	32709	
2337	0	32956	
2338	0	33076	
2339	0	33060	
2340	0	33108	
2341	0	33052	
2342	0	32868	
2343	0	32636	
2344	0	32520	
2345	0	32696	
2346	0	32734	
2347	0	32688	
2348	0	32800	
2349	0	32776	
2350	0	32793	
2351	0	32552	
2352	0	32592	
2353	0	32640	
2354	0	32652	
2355	0	32804	
2356	0	32728	
2357	0	32940	
2358	0	33012	
2359	0	33036	
2360	0	33060	
2361	0	32936	
2362	0	32884	
2363	0	32752	
2364	0	32680	
2365	0	32728	
2366	0	32748	
2367	0	32696	
2368	0	32661	
2369	0	32664	
2370	0	32817	
2371	0	32660	
2372	0	32584	
2373	0	32632	
2374	0	32727	
2375	0	32768	
2376	0	32712	
2377	0	32828	
2378	0	32920	
2379	0	32968	
2380	0	33060	
2381	0	32976	
2382	0	32876	
2383	0	32850	
2384	0	32724	
2385	0	32804	
2386	0	32869	
2387	0	32724	
2388	0	32664	
2389	0	32736	
2390	0	32748	
2391	0	32489	
2392	0	32504	
2393	0	32672	
2394	0	32604	
2395	0	32680	
2396	0	32648	
2397	0	32900	
2398	0	33000	
2399	0	33073	
2400	0	33152	
2401	0	33088	
2402	0	32992	
2403	0	32776	
2404	0	32656	
2405	0	32720	
2406	0	32724	
2407	0	32745	
2408	0	32808	
2409	0	32628	
2410	0	32517	
2411	0	32500	
2412	0	32628	
2413	0	32782	
2414	0	32856	
2415	0	32824	
2416	0	32744	
2417	0	32872	
2418	0	33008	
2419	0	32964	
2420	0	32960	
2421	0	32884	
2422	0	32775	
2423	0	32748	
2424	0	32700	
2425	0	32790	
2426	0	32748	
2427	0	32788	
2428	0	32928	
2429	0	32900	
2430	0	32800	
2431	0	32532	
2432	0	32514	
2433	0	32516	
2434	0	32664	
2435	0	32676	
2436	0	32710	
2437	0	32960	
2438	0	33016	
2439	0	32900	
2440	0	32992	
2441	0	32940	
2442	0	32873	
2443	0	32876	
2444	0	32896	
2445	0	32696	
2446	0	32636	
2447	0	32684	
2448	0	32660	
2449	0	32452	
2450	0	32656	
2451	0	32580	
2452	0	32636	
2453	0	32704	
2454	0	32839	
2455	0	32860	
2456	0	32700	
2457	0	32960	
2458	0	32948	
2459	0	32958	
2460	0	33092	
2461	0	32956	
2462	0	32903	
2463	0	32864	
2464	0	32832	
2465	0	32712	
2466	0	32660	
2467	0	32684	
2468	0	32716	
2469	0	32720	
2470	0	32660	
2471	0	32572	
2472	0	32660	
2473	0	32688	
2474	0	32728	
2475	0	32780	
2476	0	32652	
2477	0	32904	
2478	0	32964	
2479	0	32916	
2480	0	33024	
2481	0	32844	
2482	0	32804	
2483	0	32912	
2484	0	33012	
2485	0	32870	
2486	0	32752	
2487	0	32700	
2488	0	32612	
2489	0	32672	
2490	0	32620	
2491	0	32604	
2492	0	32628	
2493	0	32592	
2494	0	32668	
2495	0	32828	
2496	0	32702	
2497	0	32948	
2498	0	32948	
2499	0	32968	
2500	0	33092	
2501	0	32988	
2502	0	32968	
2503	0	32847	
2504	0	32680	
2505	0	32832	
2506	0	32844	
2507	0	32636	
2508	0	32512	
2509	0	32540	
2510	0	32592	
2511	0	32556	
2512	0	32576	
2513	0	32688	
2514	0	32684	
2515	0	32772	
2516	0	32717	
2517	0	32840	
2518	0	32904	
2519	0	33000	
2520	0	33064	
2521	0	32904	
2522	0	32813	
2523	0	32928	
2524	0	32972	
2525	0	32876	
2526	0	32744	
2527	0	32580	
2528	0	32654	
2529	0	32638	
2530	0	32752	
2531	0	32672	
2532	0	32684	
2533	0	32612	
2534	0	32661	
2535	0	32788	
2536	0	32693	
2537	0	32972	
2538	0	33028	
2539	0	32986	
2540	0	32992	
2541	0	32904	
2542	0	32796	
2543	0	32806	
2544	0	32724	
2545	0	32684	
2546	0	32744	
2547	0	32732	
2548	0	32800	
2549	0	32712	
2550	0	32656	
2551	0	32516	
2552	0	32516	
2553	0	32672	
2554	0	32736	
2555	0	32738	
2556	0	32820	
2557	0	33016	
2558	0	33104	
2559	0	32964	
2560	0	33032	
2561	0	32924	
2562	0	32824	
2563	0	32756	
2564	0	32744	
2565	0	32753	
2566	0	32716	
2567	0	32608	
2568	0	32612	
2569	0	32645	
2570	0	32772	
2571	0	32648	
2572	0	32692	
2573	0	32629	
2574	0	32776	
2575	0	32712	
2576	0	32868	
2577	0	33016	
2578	0	32920	
2579	0	32860	
2580	0	32892	
2581	0	32836	
2582	0	32940	
2583	0	32820	
2584	0	32736	
2585	0	32617	
2586	0	32708	
2587	0	32752	
2588	0	32784	
2589	0	32712	
2590	0	32692	
2591	0	32628	
2592	0	32770	
2593	0	32692	
2594	0	32708	
2595	0	32812	
2596	0	32740	
2597	0	32952	
2598	0	33020	
2599	0	32928	
2600	0	32964	
2601	0	32828	
2602	0	32820	
2603	0	32876	
2604	0	32784	
2605	0	32652	
2606	0	32624	
2607	0	32590	
2608	0	32668	
2609	0	32652	
2610	0	32620	
2611	0	32580	
2612	0	32596	
2613	0	32752	
2614	0	32740	
2615	0	32788	
2616	0	32780	
2617	0	32992	
2618	0	33020	
2619	0	33013	
2620	0	33108	
2621	0	32964	
2622	0	32924	
2623	0	32856	
2624	0	32815	
2625	0	32684	
2626	0	32788	
2627	0	32764	
2628	0	32652	
2629	0	32569	
2630	0	32600	
2631	0	32512	
2632	0	32600	
2633	0	32592	
2634	0	32714	
2635	0	32808	
2636	0	32820	
2637	0	32950	
2638	0	33032	
2639	0	32928	
2640	0	33096	
2641	0	32933	
2642	0	32780	
2643	0	32800	
2644	0	32751	
2645	0	32688	
2646	0	32772	
2647	0	32676	
2648	0	32676	
2649	0	32660	
2650	0	32624	
2651	0	32576	
2652	0	32480	
2653	0	32684	
2654	0	32752	
2655	0	32832	
2656	0	32772	
2657	0	32940	
2658	0	32996	
2659	0	32992	
2660	0	33096	
2661	0	32964	
2662	0	32840	
2663	0	32892	
2664	0	32916	
2665	0	32912	
2666	0	32924	
2667	0	32868	
2668	0	32656	
2669	0	32564	
2670	0	32518	
2671	0	32425	
2672	0	32464	
2673	0	32448	
2674	0	32624	
2675	0	32808	
2676	0	32828	
2677	0	33120	
2678	0	32976	
2679	0	32828	
2680	0	33015	
2681	0	33004	
2682	0	32925	
2683	0	32744	
2684	0	32708	
2685	0	32708	
2686	0	32736	
2687	0	32680	
2688	0	32685	
2689	0	32662	
2690	0	32676	
2691	0	32676	
2692	0	32652	
2693	0	32640	
2694	0	32684	
2695	0	32652	
2696	0	32692	
2697	0	32952	
2698	0	32956	
2699	0	32956	
2700	0	33250	
2701	0	33064	
2702	0	32904	
2703	0	32768	
2704	0	32648	
2705	0	32688	
2706	0	32672	
2707	0	32736	
2708	0	32636	
2709	0	32668	
2710	0	32669	
2711	0	32660	
2712	0	32684	
2713	0	32660	
2714	0	32748	
2715	0	32800	
2716	0	32808	
2717	0	32916	
2718	0	33024	
2719	0	32896	
2720	0	33040	
2721	0	32904	
2722	0	32900	
2723	0	32845	
2724	0	32796	
2725	0	32737	
2726	0	32697	
2727	0	32684	
2728	0	32685	
2729	0	32712	
2730	0	32768	
2731	0	32600	
2732	0	32616	
2733	0	32668	
2734	0	32700	
2735	0	32748	
2736	0	32740	
2737	0	32844	
2738	0	32926	
2739	0	32968	
2740	0	32940	
2741	0	32912	
2742	0	32836	
2743	0	32748	
2744	0	32724	
2745	0	32760	
2746	0	32808	
2747	0	32735	
2748	0	32652	
2749	0	32644	
2750	0	32604	
2751	0	32592	
2752	0	32496	
2753	0	32504	
2754	0	32724	
2755	0	32732	
2756	0	32756	
2757	0	32884	
2758	0	33064	
2759	0	33156	
2760	0	33164	
2761	0	33062	
2762	0	32988	
2763	0	32800	
2764	0	32672	
2765	0	32576	
2766	0	32612	
2767	0	32696	
2768	0	32743	
2769	0	32768	
2770	0	32720	
2771	0	32624	
2772	0	32766	
2773	0	32688	
2774	0	32800	
2775	0	32768	
2776	0	32812	
2777	0	32944	
2778	0	32948	
2779	0	32948	
2780	0	33008	
2781	0	32881	
2782	0	32848	
2783	0	32784	
2784	0	32705	
2785	0	32656	
2786	0	32668	
2787	0	32576	
2788	0	32637	
2789	0	32684	
2790	0	32668	
2791	0	32608	
2792	0	32644	
2793	0	32846	
2794	0	32900	
2795	0	32684	
2796	0	32604	
2797	0	32868	
2798	0	32880	
2799	0	32884	
2800	0	32944	
2801	0	32880	
2802	0	32860	
2803	0	32752	
2804	0	32792	
2805	0	32777	
2806	0	32653	
2807	0	32716	
2808	0	32664	
2809	0	32728	
2810	0	32704	
2811	0	32604	
2812	0	32660	
2813	0	32736	
2814	0	32724	
2815	0	32832	
2816	0	32904	
2817	0	32974	
2818	0	33064	
2819	0	32860	
2820	0	32892	
2821	0	32876	
2822	0	32832	
2823	0	32788	
2824	0	32752	
2825	0	32764	
2826	0	32824	
2827	0	32737	
2828	0	32696	
2829	0	32652	
2830	0	32588	
2831	0	32462	
2832	0	32548	
2833	0	32644	
2834	0	32720	
2835	0	32825	
2836	0	32808	
2837	0	32908	
2838	0	33108	
2839	0	33080	
2840	0	33120	
2841	0	32868	
2842	0	32766	
2843	0	32792	
2844	0	32768	
2845	0	32820	
2846	0	32728	
2847	0	32672	
2848	0	32708	
2849	0	32764	
2850	0	32712	
2851	0	32564	
2852	0	32564	
2853	0	32684	
2854	0	32704	
2855	0	32752	
2856	0	32708	
2857	0	32864	
2858	0	33016	
2859	0	32885	
2860	0	32956	
2861	0	32840	
2862	0	32796	
2863	0	32824	
2864	0	32864	
2865	0	32744	
2866	0	32664	
2867	0	32768	
2868	0	32720	
2869	0	32776	
2870	0	32696	
2871	0	32640	
2872	0	32660	
2873	0	32748	
2874	0	32892	
2875	0	32760	
2876	0	32800	
2877	0	32892	
2878	0	32972	
2879	0	32972	
2880	0	33044	
2881	0	32984	
2882	0	32884	
2883	0	32764	
2884	0	32700	
2885	0	32688	
2886	0	32740	
2887	0	32716	
2888	0	32504	
2889	0	32570	
2890	0	32528	
2891	0	32598	
2892	0	32568	
2893	0	32544	
2894	0	32673	
2895	0	32712	
2896	0	32952	
2897	0	33152	
2898	0	33096	
2899	0	33008	
2900	0	33100	
2901	0	32884	
2902	0	32639	
2903	0	32620	
2904	0	32740	
2905	0	32736	
2906	0	32740	
2907	0	32744	
2908	0	32644	
2909	0	32698	
2910	0	32660	
2911	0	32608	
2912	0	32684	
2913	0	32636	
2914	0	32820	
2915	0	32768	
2916	0	32832	
2917	0	32960	
2918	0	33060	
2919	0	33049	
2920	0	33052	
2921	0	32928	
2922	0	32856	
2923	0	32784	
2924	0	32832	
2925	0	32836	
2926	0	32736	
2927	0	32624	
2928	0	32564	
2929	0	32669	
2930	0	32564	
2931	0	32532	
2932	0	32688	
2933	0	32672	
2934	0	32792	
2935	0	32756	
2936	0	32792	
2937	0	32900	
2938	0	32981	
2939	0	32880	
2940	0	33016	
2941	0	32908	
2942	0	32848	
2943	0	32836	
2944	0	32724	
2945	0	32680	
2946	0	32669	
2947	0	32693	
2948	0	32632	
2949	0	32700	
2950	0	32556	
2951	0	32672	
2952	0	32680	
2953	0	32725	
2954	0	32748	
2955	0	32752	
2956	0	32728	
2957	0	33032	
2958	0	33064	
2959	0	32961	
2960	0	32966	
2961	0	32928	
2962	0	32844	
2963	0	32744	
2964	0	32620	
2965	0	32728	
2966	0	32679	
2967	0	32872	
2968	0	32720	
2969	0	32808	
2970	0	32689	
2971	0	32632	
2972	0	32596	
2973	0	32625	
2974	0	32724	
2975	0	32748	
2976	0	32780	
2977	0	32980	
2978	0	33072	
2979	0	33100	
2980	0	33008	
2981	0	32868	
2982	0	32868	
2983	0	32808	
2984	0	32752	
2985	0	32668	
2986	0	32632	
2987	0	32692	
2988	0	32680	
2989	0	32712	
2990	0	32632	
2991	0	32568	
2992	0	32528	
2993	0	32480	
2994	0	32680	
2995	0	32772	
2996	0	32828	
2997	0	33100	
2998	0	33152	
2999	0	33128	
3000	0	33072	
3001	0	32948	
3002	0	32861	
3003	0	32684	
3004	0	32764	
3005	0	32724	
3006	0	32692	
3007	0	32668	
3008	0	32653	
3009	0	32653	
3010	0	32657	
3011	0	32480	
3012	0	32526	
3013	0	32680	
3014	0	32776	
3015	0	32710	
3016	0	32880	
3017	0	33024	
3018	0	33092	
3019	0	33008	
3020	0	33016	
3021	0	32948	
3022	0	32804	
3023	0	32744	
3024	0	32760	
3025	0	32718	
3026	0	32672	
3027	0	32664	
3028	0	32716	
3029	0	32676	
3030	0	32576	
3031	0	32592	
3032	0	32672	
3033	0	32692	
3034	0	32804	
3035	0	32728	
3036	0	32804	
3037	0	32928	
3038	0	32984	
3039	0	32962	
3040	0	33057	
3041	0	32932	
3042	0	32804	
3043	0	32656	
3044	0	32700	
3045	0	32760	
3046	0	32712	
3047	0	32604	
3048	0	32768	
3049	0	32736	
3050	0	32672	
3051	0	32636	
3052	0	32805	
3053	0	32772	
3054	0	32816	
3055	0	32888	
3056	0	32836	
3057	0	32964	
3058	0	32992	
3059	0	33032	
3060	0	32916	
3061	0	32748	
3062	0	32672	
3063	0	32636	
3064	0	32604	
3065	0	32656	
3066	0	32956	
3067	0	32873	
3068	0	32768	
3069	0	32916	
3070	0	32800	
3071	0	32661	
3072	0	32600	
3073	0	32706	
3074	0	32776	
3075	0	32644	
3076	0	32716	
3077	0	32932	
3078	0	32948	
3079	0	32924	
3080	0	32916	
3081	0	32804	
3082	0	32804	
3083	0	32884	
3084	0	32880	
3085	0	32748	
3086	0	32596	
3087	0	32728	
3088	0	32624	
3089	0	32636	
3090	0	32584	
3091	0	32584	
3092	0	32644	
3093	0	32732	
3094	0	32728	
3095	0	32736	
3096	0	32856	
3097	0	32992	
3098	0	33052	
3099	0	32984	
3100	0	33005	
3101	0	32860	
3102	0	32793	
3103	0	32713	
3104	0	32748	
3105	0	32848	
3106	0	32804	
3107	0	32764	
3108	0	32700	
3109	0	32744	
3110	0	32596	
3111	0	32536	
3112	0	32640	
3113	0	32712	
3114	0	32748	
3115	0	32728	
3116	0	32920	
3117	0	33024	
3118	0	33048	
3119	0	32942	
3120	0	33016	
3121	0	32905	
3122	0	32816	
3123	0	32752	
3124	0	32836	
3125	0	32820	
3126	0	32704	
3127	0	32676	
3128	0	32552	
3129	0	32672	
3130	0	32544	
3131	0	32620	
3132	0	32592	
3133	0	32708	
3134	0	32737	
3135	0	32769	
3136	0	32884	
3137	0	33088	
3138	0	33132	
3139	0	33085	
3140	0	33010	
3141	0	32736	
3142	0	32732	
3143	0	32804	
3144	0	32808	
3145	0	32728	
3146	0	32736	
3147	0	32768	
3148	0	32628	
3149	0	32632	
3150	0	32509	
3151	0	32476	
3152	0	32552	
3153	0	32624	
3154	0	32732	
3155	0	32694	
3156	0	32932	
3157	0	33080	
3158	0	33060	
3159	0	33044	
3160	0	33036	
3161	0	32868	
3162	0	32792	
3163	0	32664	
3164	0	32714	
3165	0	32588	
3166	0	32644	
3167	0	32725	
3168	0	32820	
3169	0	32932	
3170	0	32800	
3171	0	32824	
3172	0	32724	
3173	0	32686	
3174	0	32888	
3175	0	32701	
3176	0	32716	
3177	0	32856	
3178	0	32933	
3179	0	32928	
3180	0	32869	
3181	0	32868	
3182	0	32804	
3183	0	32764	
3184	0	32772	
3185	0	32672	
3186	0	32638	
3187	0	32660	
3188	0	32653	
3189	0	32676	
3190	0	32710	
3191	0	32780	
3192	0	32808	
3193	0	32825	
3194	0	32812	
3195	0	32780	
3196	0	32767	
3197	0	32844	
3198	0	32928	
3199	0	32940	
3200	0	33060	
3201	0	32932	
3202	0	32800	
3203	0	32760	
3204	0	32708	
3205	0	32816	
3206	0	32680	
3207	0	32708	
3208	0	32668	
3209	0	32708	
3210	0	32540	
3211	0	32524	
3212	0	32628	
3213	0	32696	
3214	0	32768	
3215	0	32864	
3216	0	33008	
3217	0	33036	
3218	0	33137	
3219	0	33040	
3220	0	32992	
3221	0	32892	
3222	0	32860	
3223	0	32732	
3224	0	32736	
3225	0	32684	
3226	0	32513	
3227	0	32632	
3228	0	32704	
3229	0	32788	
3230	0	32628	
3231	0	32612	
3232	0	32664	
3233	0	32624	
3234	0	32756	
3235	0	32782	
3236	0	32840	
3237	0	32988	
3238	0	33028	
3239	0	33108	
3240	0	33080	
3241	0	33020	
3242	0	32828	
3243	0	32760	
3244	0	32692	
3245	0	32716	
3246	0	32668	
3247	0	32716	
3248	0	32628	
3249	0	32684	
3250	0	32552	
3251	0	32532	
3252	0	32552	
3253	0	32588	
3254	0	32678	
3255	0	32794	
3256	0	32912	
3257	0	33064	
3258	0	33096	
3259	0	33188	
3260	0	33168	
3261	0	33024	
3262	0	32856	
3263	0	32744	
3264	0	32568	
3265	0	32624	
3266	0	32488	
3267	0	32568	
3268	0	32588	
3269	0	32792	
3270	0	32756	
3271	0	32648	
3272	0	32636	
3273	0	32709	
3274	0	32820	
3275	0	32732	
3276	0	32888	
3277	0	32964	
3278	0	32945	
3279	0	33052	
3280	0	33012	
3281	0	32924	
3282	0	32793	
3283	0	32853	
3284	0	32804	
3285	0	32792	
3286	0	32740	
3287	0	32588	
3288	0	32568	
3289	0	32732	
3290	0	32540	
3291	0	32640	
3292	0	32692	
3293	0	32740	
3294	0	32742	
3295	0	32671	
3296	0	32830	
3297	0	32972	
3298	0	33057	
3299	0	33040	
3300	0	33012	
3301	0	32884	
3302	0	32832	
3303	0	32752	
3304	0	32704	
3305	0	32744	
3306	0	32748	
3307	0	32848	
3308	0	32660	
3309	0	32644	
3310	0	32584	
3311	0	32652	
3312	0	32772	
3313	0	32646	
3314	0	32744	
3315	0	32769	
3316	0	32877	
3317	0	32932	
3318	0	32820	
3319	0	32944	
3320	0	32984	
3321	0	32924	
3322	0	32740	
3323	0	32792	
3324	0	32760	
3325	0	32780	
3326	0	32636	
3327	0	32692	
3328	0	32648	
3329	0	32716	
3330	0	32577	
3331	0	32564	
3332	0	32608	
3333	0	32620	
3334	0	32821	
3335	0	32732	
3336	0	32940	
3337	0	33012	
3338	0	33028	
3339	0	33044	
3340	0	32944	
3341	0	32844	
3342	0	32844	
3343	0	32704	
3344	0	32749	
3345	0	32704	
3346	0	32756	
3347	0	32760	
3348	0	32608	
3349	0	32704	
3350	0	32500	
3351	0	32472	
3352	0	32632	
3353	0	32836	
3354	0	33001	
3355	0	32906	
3356	0	33008	
3357	0	32996	
3358	0	32900	
3359	0	33008	
3360	0	32986	
3361	0	32976	
3362	0	32830	
3363	0	32745	
3364	0	32720	
3365	0	32700	
3366	0	32588	
3367	0	32584	
3368	0	32508	
3369	0	32625	
3370	0	32516	
3371	0	32629	
3372	0	32728	
3373	0	32881	
3374	0	32920	
3375	0	32780	
3376	0	32844	
3377	0	33044	
3378	0	32968	
3379	0	32984	
3380	0	33040	
3381	0	32900	
3382	0	32792	
3383	0	32708	
3384	0	32504	
3385	0	32600	
3386	0	32696	
3387	0	32672	
3388	0	32676	
3389	0	32816	
3390	0	32612	
3391	0	32672	
3392	0	32732	
3393	0	32832	
3394	0	33020	
3395	0	32876	
3396	0	33048	
3397	0	33037	
3398	0	32856	
3399	0	32794	
3400	0	32828	
3401	0	32756	
3402	0	32770	
3403	0	32732	
3404	0	32736	
3405	0	32696	
3406	0	32640	
3407	0	32736	
3408	0	32784	
3409	0	32846	
3410	0	32624	
3411	0	32520	
3412	0	32572	
3413	0	32720	
3414	0	32740	
3415	0	32716	
3416	0	32964	
3417	0	32996	
3418	0	32804	
3419	0	32876	
3420	0	32830	
3421	0	32772	
3422	0	32750	
3423	0	32844	
3424	0	32836	
3425	0	32846	
3426	0	32800	
3427	0	32772	
3428	0	32740	
3429	0	32692	
3430	0	32556	
3431	0	32612	
3432	0	32656	
3433	0	32740	
3434	0	32861	
3435	0	32828	
3436	0	32908	
3437	0	33024	
3438	0	32972	
3439	0	32988	
3440	0	32964	
3441	0	32852	
3442	0	32812	
3443	0	32736	
3444	0	32720	
3445	0	32756	
3446	0	32756	
3447	0	32628	
3448	0	32596	
3449	0	32648	
3450	0	32592	
3451	0	32749	
3452	0	32780	
3453	0	32816	
3454	0	32804	
3455	0	32672	
3456	0	32844	
3457	0	32904	
3458	0	32932	
3459	0	33116	
3460	0	33068	
3461	0	32924	
3462	0	32828	
3463	0	32696	
3464	0	32716	
3465	0	32812	
3466	0	32740	
3467	0	32708	
3468	0	32581	
3469	0	32489	
3470	0	32472	
3471	0	32492	
3472	0	32628	
3473	0	32672	
3474	0	32640	
3475	0	32692	
3476	0	32948	
3477	0	33075	
3478	0	33060	
3479	0	33136	
3480	0	32956	
3481	0	32992	
3482	0	32896	
3483	0	32716	
3484	0	32653	
3485	0	32672	
3486	0	32669	
3487	0	32696	
3488	0	32764	
3489	0	32688	
3490	0	32516	
3491	0	32524	
3492	0	32633	
3493	0	32702	
3494	0	32962	
3495	0	32884	
3496	0	32896	
3497	0	33000	
3498	0	32944	
3499	0	33081	
3500	0	32984	
3501	0	32864	
3502	0	32868	
3503	0	32804	
3504	0	32725	
3505	0	32656	
3506	0	32670	
3507	0	32612	
3508	0	32600	
3509	0	32556	
3510	0	32412	
3511	0	32540	
3512	0	32752	
3513	0	32868	
3514	0	32932	
3515	0	32853	
3516	0	32988	
3517	0	33092	
3518	0	32928	
3519	0	32997	
3520	0	32924	
3521	0	32944	
3522	0	32896	
3523	0	32902	
3524	0	32848	
3525	0	32804	
3526	0	32685	
3527	0	32528	
3528	0	32556	
3529	0	32562	
3530	0	32436	
3531	0	32588	
3532	0	32669	
3533	0	32705	
3534	0	32710	
3535	0	32728	
3536	0	32889	
3537	0	33008	
3538	0	32980	
3539	0	33046	
3540	0	32964	
3541	0	32845	
3542	0	32796	
3543	0	32788	
3544	0	32773	
3545	0	32760	
3546	0	32700	
3547	0	32644	
3548	0	32644	
3549	0	32744	
3550	0	32772	
3551	0	32624	
3552	0	32556	
3553	0	32664	
3554	0	32780	
3555	0	32775	
3556	0	32908	
3557	0	32992	
3558	0	32992	
3559	0	33196	
3560	0	33070	
3561	0	32848	
3562	0	32752	
3563	0	32680	
3564	0	32636	
3565	0	32712	
3566	0	32716	
3567	0	32620	
3568	0	32712	
3569	0	32620	
3570	0	32536	
3571	0	32620	
3572	0	32612	
3573	0	32620	
3574	0	32800	
3575	0	32856	
3576	0	33024	
3577	0	33033	
3578	0	32924	
3579	0	32881	
3580	0	32791	
3581	0	32772	
3582	0	32774	
3583	0	32804	
3584	0	32832	
3585	0	32791	
3586	0	32752	
3587	0	32656	
3588	0	32664	
3589	0	32724	
3590	0	32613	
3591	0	32592	
3592	0	32564	
3593	0	32752	
3594	0	32776	
3595	0	32760	
3596	0	32936	
3597	0	32968	
3598	0	32892	
3599	0	33008	
3600	0	32992	
3601	0	32772	
3602	0	32772	
3603	0	32736	
3604	0	32662	
3605	0	32804	
3606	0	32876	
3607	0	32728	
3608	0	32684	
3609	0	32688	
3610	0	32580	
3611	0	32572	
3612	0	32716	
3613	0	32748	
3614	0	32712	
3615	0	32670	
3616	0	33129	
3617	0	33166	
3618	0	33040	
3619	0	33016	
3620	0	32912	
3621	0	32765	
3622	0	32760	
3623	0	32680	
3624	0	32624	
3625	0	32796	
3626	0	32876	
3627	0	32716	
3628	0	32648	
3629	0	32644	
3630	0	32516	
3631	0	32588	
3632	0	32660	
3633	0	32749	
3634	0	32750	
3635	0	32768	
3636	0	33041	
3637	0	32984	
3638	0	32832	
3639	0	32988	
3640	0	32944	
3641	0	32840	
3642	0	32892	
3643	0	32852	
3644	0	32653	
3645	0	32652	
3646	0	32704	
3647	0	32664	
3648	0	32645	
3649	0	32572	
3650	0	32644	
3651	0	32640	
3652	0	32740	
3653	0	32736	
3654	0	32764	
3655	0	32845	
3656	0	32944	
3657	0	32944	
3658	0	32864	
3659	0	32972	
3660	0	32872	
3661	0	32820	
3662	0	32856	
3663	0	32820	
3664	0	32696	
3665	0	32624	
3666	0	32720	
3667	0	32612	
3668	0	32741	
3669	0	32700	
3670	0	32661	
3671	0	32680	
3672	0	32676	
3673	0	32768	
3674	0	32800	
3675	0	32804	
3676	0	32864	
3677	0	32996	
3678	0	32920	
3679	0	32949	
3680	0	32880	
3681	0	32850	
3682	0	32828	
3683	0	32828	
3684	0	32716	
3685	0	32774	
3686	0	32724	
3687	0	32644	
3688	0	32676	
3689	0	32612	
3690	0	32616	
3691	0	32692	
3692	0	32692	
3693	0	32808	
3694	0	32888	
3695	0	32888	
3696	0	32984	
3697	0	32912	
3698	0	32876	
3699	0	32980	
3700	0	32860	
3701	0	32756	
3702	0	32804	
3703	0	32692	
3704	0	32692	
3705	0	32661	
3706	0	32636	
3707	0	32584	
3708	0	32605	
3709	0	32596	
3710	0	32624	
3711	0	32692	
3712	0	32748	
3713	0	32828	
3714	0	32976	
3715	0	33096	
3716	0	33264	
3717	0	33092	
3718	0	32776	
3719	0	32736	
3720	0	32788	
3721	0	32844	
3722	0	32804	
3723	0	32812	
3724	0	32720	
3725	0	32616	
3726	0	32676	
3727	0	32616	
3728	0	32612	
3729	0	32624	
3730	0	32588	
3731	0	32672	
3732	0	32672	
3733	0	32708	
3734	0	32824	
3735	0	32828	
3736	0	33004	
3737	0	33116	
3738	0	33013	
3739	0	33084	
3740	0	32941	
3741	0	32857	
3742	0	32812	
3743	0	32728	
3744	0	32808	
3745	0	32764	
3746	0	32716	
3747	0	32556	
3748	0	32444	
3749	0	32508	
3750	0	32460	
3751	0	32672	
3752	0	32580	
3753	0	32740	
3754	0	32884	
3755	0	32900	
3756	0	33072	
3757	0	33084	
3758	0	32948	
3759	0	33088	
3760	0	32921	
3761	0	32780	
3762	0	32832	
3763	0	32852	
3764	0	32700	
3765	0	32636	
3766	0	32668	
3767	0	32680	
3768	0	32616	
3769	0	32556	
3770	0	32558	
3771	0	32704	
3772	0	32700	
3773	0	32884	
3774	0	32788	
3775	0	32868	
3776	0	32992	
3777	0	32972	
3778	0	32916	
3779	0	32997	
3780	0	32948	
3781	0	32826	
3782	0	32808	
3783	0	32758	
3784	0	32704	
3785	0	32672	
3786	0	32664	
3787	0	32549	
3788	0	32650	
3789	0	32644	
3790	0	32504	
3791	0	32572	
3792	0	32568	
3793	0	32758	
3794	0	32897	
3795	0	32937	
3796	0	33046	
3797	0	33100	
3798	0	32962	
3799	0	33060	
3800	0	32912	
3801	0	32800	
3802	0	32780	
3803	0	32716	
3804	0	32680	
3805	0	32636	
3806	0	32580	
3807	0	32636	
3808	0	32716	
3809	0	32676	
3810	0	32660	
3811	0	32532	
3812	0	32701	
3813	0	32812	
3814	0	32932	
3815	0	32750	
3816	0	32913	
3817	0	32972	
3818	0	33036	
3819	0	33048	
3820	0	32964	
3821	0	32832	
3822	0	32728	
3823	0	32692	
3824	0	32764	
3825	0	32700	
3826	0	32636	
3827	0	32606	
3828	0	32621	
3829	0	32680	
3830	0	32568	
3831	0	32680	
3832	0	32668	
3833	0	32632	
3834	0	32596	
3835	0	32800	
3836	0	33100	
3837	0	33188	
3838	0	33100	
3839	0	33032	
3840	0	32912	
3841	0	32772	
3842	0	32708	
3843	0	32676	
3844	0	32596	
3845	0	32668	
3846	0	32740	
3847	0	32704	
3848	0	32846	
3849	0	32698	
3850	0	32568	
3851	0	32552	
3852	0	32576	
3853	0	32672	
3854	0	32636	
3855	0	32848	
3856	0	33004	
3857	0	33009	
3858	0	33068	
3859	0	33114	
3860	0	32980	
3861	0	32904	
3862	0	32848	
3863	0	32760	
3864	0	32672	
3865	0	32652	
3866	0	32576	
3867	0	32568	
3868	0	32644	
3869	0	32597	
3870	0	32720	
3871	0	32672	
3872	0	32796	
3873	0	32774	
3874	0	32792	
3875	0	32880	
3876	0	33004	
3877	0	33060	
3878	0	32941	
3879	0	32988	
3880	0	32924	
3881	0	32820	
3882	0	32750	
3883	0	32772	
3884	0	32572	
3885	0	32613	
3886	0	32576	
3887	0	32648	
3888	0	32788	
3889	0	32736	
3890	0	32644	
3891	0	32638	
3892	0	32624	
3893	0	32864	
3894	0	32780	
3895	0	32892	
3896	0	33097	
3897	0	33087	
3898	0	32948	
3899	0	32912	
3900	0	32822	
3901	0	32728	
3902	0	32684	
3903	0	32676	
3904	0	32668	
3905	0	32668	
3906	0	32748	
3907	0	32780	
3908	0	32792	
3909	0	32644	
3910	0	32616	
3911	0	32622	
3912	0	32668	
3913	0	32716	
3914	0	32764	
3915	0	32844	
3916	0	33017	
3917	0	32964	
3918	0	32940	
3919	0	32972	
3920	0	32868	
3921	0	32852	
3922	0	32716	
3923	0	32684	
3924	0	32796	
3925	0	32852	
3926	0	32680	
3927	0	32536	
3928	0	32712	
3929	0	32612	
3930	0	32544	
3931	0	32540	
3932	0	32701	
3933	0	32828	
3934	0	32964	
3935	0	33016	
3936	0	33088	
3937	0	33036	
3938	0	32902	
3939	0	32964	
3940	0	32921	
3941	0	32736	
3942	0	32696	
3943	0	32628	
3944	0	32732	
3945	0	32640	
3946	0	32664	
3947	0	32686	
3948	0	32813	
3949	0	32600	
3950	0	32552	
3951	0	32576	
3952	0	32640	
3953	0	32800	
3954	0	32748	
3955	0	32836	
3956	0	33044	
3957	0	32950	
3958	0	32913	
3959	0	32913	
3960	0	32884	
3961	0	32888	
3962	0	32868	
3963	0	32876	
3964	0	32852	
3965	0	32776	
3966	0	32748	
3967	0	32668	
3968	0	32680	
3969	0	32496	
3970	0	32444	
3971	0	32552	
3972	0	32604	
3973	0	32766	
3974	0	32804	
3975	0	32908	
3976	0	33032	
3977	0	33024	
3978	0	32932	
3979	0	32997	
3980	0	32964	
3981	0	32782	
3982	0	32832	
3983	0	32760	
3984	0	32776	
3985	0	32674	
3986	0	32694	
3987	0	32686	
3988	0	32694	
3989	0	32597	
3990	0	32580	
3991	0	32628	
3992	0	32756	
3993	0	32780	
3994	0	32744	
3995	0	32772	
3996	0	32968	
3997	0	32972	
3998	0	32964	
3999	0	32940	
4000	0	32888	
4001	0	32896	
4002	0	32829	
4003	0	32724	
4004	0	32796	
4005	0	32776	
4006	0	32677	
4007	0	32564	
4008	0	32692	
4009	0	32604	
4010	0	32648	
4011	0	32636	
4012	0	32596	
4013	0	32704	
4014	0	32708	
4015	0	32900	
4016	0	32960	
4017	0	33040	
4018	0	32984	
4019	0	33001	
4020	0	33000	
4021	0	33023	
4022	0	32804	
4023	0	32528	
4024	0	32600	
4025	0	32740	
4026	0	32690	
4027	0	32622	
4028	0	32764	
4029	0	32768	
4030	0	32676	
4031	0	32612	
4032	0	32548	
4033	0	32729	
4034	0	32768	
4035	0	32956	
4036	0	32944	
4037	0	32916	
4038	0	32869	
4039	0	32996	
4040	0	32932	
4041	0	32880	
4042	0	32860	
4043	0	32761	
4044	0	32792	
4045	0	32688	
4046	0	32588	
4047	0	32617	
4048	0	32716	
4049	0	32548	
4050	0	32584	
4051	0	32652	
4052	0	32684	
4053	0	32672	
4054	0	32716	
4055	0	32848	
4056	0	32992	
4057	0	33036	
4058	0	32961	
4059	0	33036	
4060	0	32968	
4061	0	32964	
4062	0	32862	
4063	0	32744	
4064	0	32660	
4065	0	32644	
4066	0	32692	
4067	0	32668	
4068	0	32833	
4069	0	32680	
4070	0	32648	
4071	0	32528	
4072	0	32576	
4073	0	32732	
4074	0	32696	
4075	0	32924	
4076	0	33012	
4077	0	33020	
4078	0	33008	
4079	0	33024	
4080	0	32852	
4081	0	32776	
4082	0	32756	
4083	0	32792	
4084	0	32756	
4085	0	32701	
4086	0	32680	
4087	0	32858	
4088	0	32830	
4089	0	32508	
4090	0	32484	
4091	0	32592	
4092	0	32836	
4093	0	32816	
4094	0	32812	
4095	0	32788	
4096	0	32936	
4097	0	32904	
4098	0	32988	
4099	0	33092	
4100	0	32856	
4101	0	32821	
4102	0	32844	
4103	0	32748	
4104	0	32672	
4105	0	32760	
4106	0	32672	
4107	0	32676	
4108	0	32740	
4109	0	32596	
4110	0	32432	
4111	0	32608	
4112	0	32661	
4113	0	32802	
4114	0	32724	
4115	0	33048	
4116	0	33096	
4117	0	33036	
4118	0	32964	
4119	0	32813	
4120	0	32804	
4121	0	32820	
4122	0	32808	
4123	0	32656	
4124	0	32712	
4125	0	32632	
4126	0	32600	
4127	0	32632	
4128	0	32648	
4129	0	32612	
4130	0	32632	
4131	0	32649	
4132	0	32788	
4133	0	32880	
4134	0	32812	
4135	0	33029	
4136	0	33080	
4137	0	33153	
4138	0	32928	
4139	0	32904	
4140	0	32869	
4141	0	32984	
4142	0	32930	
4143	0	32720	
4144	0	32666	
4145	0	32700	
4146	0	32624	
4147	0	32616	
4148	0	32692	
4149	0	32548	
4150	0	32568	
4151	0	32596	
4152	0	32813	
4153	0	32824	
4154	0	32700	
4155	0	32800	
4156	0	32768	
4157	0	32812	
4158	0	32928	
4159	0	32980	
4160	0	32860	
4161	0	32868	
4162	0	32806	
4163	0	32700	
4164	0	32686	
4165	0	32655	
4166	0	32636	
4167	0	32704	
4168	0	32832	
4169	0	32740	
4170	0	32668	
4171	0	32644	
4172	0	32752	
4173	0	32692	
4174	0	32648	
4175	0	32832	
4176	0	32996	
4177	0	33156	
4178	0	33096	
4179	0	33056	
4180	0	32916	
4181	0	32916	
4182	0	32756	
4183	0	32764	
4184	0	32648	
4185	0	32752	
4186	0	32557	
4187	0	32568	
4188	0	32672	
4189	0	32548	
4190	0	32528	
4191	0	32632	
4192	0	32668	
4193	0	32776	
4194	0	32834	
4195	0	33089	
4196	0	33044	
4197	0	33024	
4198	0	33024	
4199	0	32980	
4200	0	32894	
4201	0	32733	
4202	0	32748	
4203	0	32796	
4204	0	32680	
4205	0	32660	
4206	0	32576	
4207	0	32680	
4208	0	32696	
4209	0	32568	
4210	0	32632	
4211	0	32709	
4212	0	32760	
4213	0	32856	
4214	0	32782	
4215	0	32952	
4216	0	32972	
4217	0	32976	
4218	0	32974	
4219	0	32876	
4220	0	32853	
4221	0	32748	
4222	0	32824	
4223	0	32806	
4224	0	32696	
4225	0	32632	
4226	0	32652	
4227	0	32672	
4228	0	32697	
4229	0	32464	
4230	0	32728	
4231	0	32708	
4232	0	32793	
4233	0	32900	
4234	0	32888	
4235	0	32984	
4236	0	32880	
4237	0	32903	
4238	0	32996	
4239	0	33116	
4240	0	32824	
4241	0	32597	
4242	0	32560	
4243	0	32568	
4244	0	32726	
4245	0	32756	
4246	0	32724	
4247	0	32661	
4248	0	32788	
4249	0	32716	
4250	0	32700	
4251	0	32560	
4252	0	32676	
4253	0	32760	
4254	0	32644	
4255	0	32897	
4256	0	32964	
4257	0	32976	
4258	0	33062	
4259	0	32984	
4260	0	32916	
4261	0	32844	
4262	0	32700	
4263	0	32644	
4264	0	32644	
4265	0	32716	
4266	0	32732	
4267	0	32788	
4268	0	32712	
4269	0	32592	
4270	0	32673	
4271	0	32592	
4272	0	32708	
4273	0	32788	
4274	0	32712	
4275	0	32944	
4276	0	32892	
4277	0	33024	
4278	0	33078	
4279	0	32972	
4280	0	32920	
4281	0	32856	
4282	0	32816	
4283	0	32784	
4284	0	32792	
4285	0	32712	
4286	0	32652	
4287	0	32490	
4288	0	32676	
4289	0	32608	
4290	0	32680	
4291	0	32696	
4292	0	32644	
4293	0	32776	
4294	0	32636	
4295	0	32790	
4296	0	32961	
4297	0	32904	
4298	0	33089	
4299	0	33100	
4300	0	32920	
4301	0	32780	
4302	0	32700	
4303	0	32796	
4304	0	32664	
4305	0	32576	
4306	0	32716	
4307	0	32684	
4308	0	32639	
4309	0	32540	
4310	0	32608	
4311	0	32724	
4312	0	32660	
4313	0	32673	
4314	0	32704	
4315	0	33050	
4316	0	33020	
4317	0	32988	
4318	0	33150	
4319	0	33020	
4320	0	33036	
4321	0	32767	
4322	0	32676	
4323	0	32544	
4324	0	32596	
4325	0	32676	
4326	0	32712	
4327	0	32668	
4328	0	32668	
4329	0	32728	
4330	0	32692	
4331	0	32688	
4332	0	32780	
4333	0	32685	
4334	0	32621	
4335	0	32984	
4336	0	33080	
4337	0	33056	
4338	0	33044	
4339	0	32832	
4340	0	32796	
4341	0	32784	
4342	0	32702	
4343	0	32708	
4344	0	32752	
4345	0	32686	
4346	0	32656	
4347	0	32728	
4348	0	32649	
4349	0	32560	
4350	0	32596	
4351	0	32682	
4352	0	32729	
4353	0	32800	
4354	0	32744	
4355	0	32868	
4356	0	33012	
4357	0	32968	
4358	0	33032	
4359	0	32920	
4360	0	32848	
4361	0	32728	
4362	0	32728	
4363	0	32893	
4364	0	32865	
4365	0	32756	
4366	0	32596	
4367	0	32612	
4368	0	32708	
4369	0	32602	
4370	0	32600	
4371	0	32704	
4372	0	32726	
4373	0	32833	
4374	0	32836	
4375	0	33004	
4376	0	32920	
4377	0	32928	
4378	0	32992	
4379	0	32984	
4380	0	32724	
4381	0	32732	
4382	0	32752	
4383	0	32868	
4384	0	32760	
4385	0	32756	
4386	0	32680	
4387	0	32648	
4388	0	32724	
4389	0	32656	
4390	0	32673	
4391	0	32640	
4392	0	32728	
4393	0	32784	
4394	0	32700	
4395	0	32884	
4396	0	33028	
4397	0	32878	
4398	0	33000	
4399	0	32912	
4400	0	32860	
4401	0	32872	
4402	0	32788	
4403	0	32756	
4404	0	32685	
4405	0	32678	
4406	0	32656	
4407	0	32684	
4408	0	32692	
4409	0	32660	
4410	0	32621	
4411	0	32644	
4412	0	32756	
4413	0	32834	
4414	0	32752	
4415	0	32892	
4416	0	33228	
4417	0	33152	
4418	0	33052	
4419	0	32868	
4420	0	32768	
4421	0	32736	
4422	0	32748	
4423	0	32708	
4424	0	32672	
4425	0	32684	
4426	0	32710	
4427	0	32680	
4428	0	32720	
4429	0	32588	
4430	0	32620	
4431	0	32576	
4432	0	32716	
4433	0	32780	
4434	0	32877	
4435	0	32944	
4436	0	32984	
4437	0	32837	
4438	0	32948	
4439	0	32960	
4440	0	32980	
4441	0	32892	
4442	0	32884	
4443	0	32772	
4444	0	32808	
4445	0	32632	
4446	0	32596	
4447	0	32708	
4448	0	32644	
4449	0	32504	
4450	0	32616	
4451	0	32640	
4452	0	32740	
4453	0	32736	
4454	0	32648	
4455	0	32892	
4456	0	32976	
4457	0	32948	
4458	0	33112	
4459	0	32932	
4460	0	32844	
4461	0	32852	
4462	0	32784	
4463	0	32760	
4464	0	32756	
4465	0	32704	
4466	0	32640	
4467	0	32632	
4468	0	32692	
4469	0	32532	
4470	0	32604	
4471	0	32580	
4472	0	32644	
4473	0	32844	
4474	0	32884	
4475	0	33072	
4476	0	33077	
4477	0	32928	
4478	0	32960	
4479	0	32868	
4480	0	32805	
4481	0	32740	
4482	0	32749	
4483	0	32856	
4484	0	32764	
4485	0	32717	
4486	0	32716	
4487	0	32596	
4488	0	32668	
4489	0	32605	
4490	0	32588	
4491	0	32612	
4492	0	32760	
4493	0	32749	
4494	0	32766	
4495	0	32996	
4496	0	33048	
4497	0	32966	
4498	0	33060	
4499	0	33028	
4500	0	32868	
4501	0	32756	
4502	0	32764	
4503	0	32652	
4504	0	32648	
4505	0	32712	
4506	0	32760	
4507	0	32644	
4508	0	32608	
4509	0	32457	
4510	0	32512	
4511	0	32644	
4512	0	32696	
4513	0	32792	
4514	0	32972	
4515	0	33148	
4516	0	33160	
4517	0	32952	
4518	0	32976	
4519	0	32884	
4520	0	32788	
4521	0	32700	
4522	0	32572	
4523	0	32673	
4524	0	32644	
4525	0	32664	
4526	0	32788	
4527	0	32864	
4528	0	32864	
4529	0	32560	
4530	0	32560	
4531	0	32660	
4532	0	32716	
4533	0	32726	
4534	0	32756	
4535	0	32904	
4536	0	32948	
4537	0	32924	
4538	0	33008	
4539	0	32934	
4540	0	32736	
4541	0	32737	
4542	0	32768	
4543	0	32748	
4544	0	32764	
4545	0	32693	
4546	0	32732	
4547	0	32708	
4548	0	32740	
4549	0	32706	
4550	0	32728	
4551	0	32688	
4552	0	32756	
4553	0	32694	
4554	0	32672	
4555	0	32832	
4556	0	32904	
4557	0	32916	
4558	0	33000	
4559	0	32902	
4560	0	32776	
4561	0	32848	
4562	0	32732	
4563	0	32748	
4564	0	32736	
4565	0	32676	
4566	0	32697	
4567	0	32708	
4568	0	32680	
4569	0	32636	
4570	0	32648	
4571	0	32704	
4572	0	32724	
4573	0	32760	
4574	0	32772	
4575	0	32932	
4576	0	33064	
4577	0	32900	
4578	0	32965	
4579	0	32920	
4580	0	32744	
4581	0	32708	
4582	0	32712	
4583	0	32788	
4584	0	32796	
4585	0	32900	
4586	0	32772	
4587	0	32676	
4588	0	32484	
4589	0	32492	
4590	0	32664	
4591	0	32680	
4592	0	32720	
4593	0	32712	
4594	0	32776	
4595	0	33032	
4596	0	33060	
4597	0	32892	
4598	0	33008	
4599	0	32980	
4600	0	32842	
4601	0	32764	
4602	0	32704	
4603	0	32680	
4604	0	32677	
4605	0	32740	
4606	0	32680	
4607	0	32648	
4608	0	32572	
4609	0	32520	
4610	0	32536	
4611	0	32680	
4612	0	32692	
4613	0	32788	
4614	0	32860	
4615	0	33116	
4616	0	33049	
4617	0	32960	
4618	0	33076	
4619	0	32884	
4620	0	32776	
4621	0	32741	
4622	0	32668	
4623	0	32728	
4624	0	32732	
4625	0	32688	
4626	0	32680	
4627	0	32768	
4628	0	32669	
4629	0	32604	
4630	0	32660	
4631	0	32760	
4632	0	32924	
4633	0	32908	
4634	0	32794	
4635	0	32864	
4636	0	32928	
4637	0	32830	
4638	0	32948	
4639	0	32804	
4640	0	32812	
4641	0	32749	
4642	0	32736	
4643	0	32938	
4644	0	32896	
4645	0	32704	
4646	0	32628	
4647	0	32644	
4648	0	32536	
4649	0	32492	
4650	0	32485	
4651	0	32636	
4652	0	32744	
4653	0	32789	
4654	0	32940	
4655	0	33024	
4656	0	32996	
4657	0	32973	
4658	0	33033	
4659	0	32900	
4660	0	32820	
4661	0	32889	
4662	0	32756	
4663	0	32680	
4664	0	32696	
4665	0	32632	
4666	0	32673	
4667	0	32736	
4668	0	32636	
4669	0	32548	
4670	0	32576	
4671	0	32676	
4672	0	32676	
4673	0	32688	
4674	0	32852	
4675	0	32992	
4676	0	33096	
4677	0	33028	
4678	0	33166	
4679	0	32884	
4680	0	32828	
4681	0	32865	
4682	0	32836	
4683	0	32768	
4684	0	32757	
4685	0	32668	
4686	0	32645	
4687	0	32692	
4688	0	32568	
4689	0	32536	
4690	0	32565	
4691	0	32604	
4692	0	32725	
4693	0	32808	
4694	0	32908	
4695	0	32992	
4696	0	33060	
4697	0	33108	
4698	0	33224	
4699	0	32968	
4700	0	32669	
4701	0	32652	
4702	0	32640	
4703	0	32676	
4704	0	32732	
4705	0	32628	
4706	0	32556	
4707	0	32625	
4708	0	32592	
4709	0	32612	
4710	0	32628	
4711	0	32614	
4712	0	32716	
4713	0	32708	
4714	0	32680	
4715	0	32948	
4716	0	33060	
4717	0	33060	
4718	0	33192	
4719	0	33036	
4720	0	33012	
4721	0	32996	
4722	0	32873	
4723	0	32744	
4724	0	32652	
4725	0	32560	
4726	0	32620	
4727	0	32624	
4728	0	32540	
4729	0	32476	
4730	0	32620	
4731	0	32676	
4732	0	32748	
4733	0	32728	
4734	0	32892	
4735	0	32948	
4736	0	32976	
4737	0	32908	
4738	0	33060	
4739	0	32878	
4740	0	32846	
4741	0	32768	
4742	0	32776	
4743	0	32752	
4744	0	32817	
4745	0	32740	
4746	0	32688	
4747	0	32660	
4748	0	32605	
4749	0	32524	
4750	0	32652	
4751	0	32640	
4752	0	32784	
4753	0	32804	
4754	0	32764	
4755	0	32832	
4756	0	32957	
4757	0	33009	
4758	0	32960	
4759	0	32928	
4760	0	32860	
4761	0	32776	
4762	0	32708	
4763	0	32728	
4764	0	32820	
4765	0	32788	
4766	0	32576	
4767	0	32700	
4768	0	32576	
4769	0	32612	
4770	0	32612	
4771	0	32656	
4772	0	32924	
4773	0	32935	
4774	0	33024	
4775	0	32997	
4776	0	32953	
4777	0	32928	
4778	0	32832	
4779	0	32764	
4780	0	32836	
4781	0	32873	
4782	0	32792	
4783	0	32692	
4784	0	32757	
4785	0	32736	
4786	0	32656	
4787	0	32637	
4788	0	32497	
4789	0	32556	
4790	0	32720	
4791	0	32740	
4792	0	32833	
4793	0	32829	
4794	0	33024	
4795	0	32992	
4796	0	32980	
4797	0	32888	
4798	0	32924	
4799	0	32820	
4800	0	32720	
4801	0	32664	
4802	0	32728	
4803	0	32736	
4804	0	32680	
4805	0	32612	
4806	0	32692	
4807	0	32608	
4808	0	32580	
4809	0	32456	
4810	0	32527	
4811	0	32608	
4812	0	32728	
4813	0	32802	
4814	0	32884	
4815	0	33076	
4816	0	33184	
4817	0	33008	
4818	0	33092	
4819	0	32956	
4820	0	32844	
4821	0	32760	
4822	0	32756	
4823	0	32744	
4824	0	32784	
4825	0	32732	
4826	0	32684	
4827	0	32704	
4828	0	32576	
4829	0	32576	
4830	0	32680	
4831	0	32748	
4832	0	32831	
4833	0	32752	
4834	0	32906	
4835	0	33024	
4836	0	33002	
4837	0	33001	
4838	0	32956	
4839	0	32868	
4840	0	32856	
4841	0	32764	
4842	0	32792	
4843	0	32896	
4844	0	32836	
4845	0	32605	
4846	0	32464	
4847	0	32644	
4848	0	32520	
4849	0	32520	
4850	0	32616	
4851	0	32640	
4852	0	32664	
4853	0	32725	
4854	0	32972	
4855	0	33016	
4856	0	33084	
4857	0	33156	
4858	0	33060	
4859	0	33012	
4860	0	33000	
4861	0	32952	
4862	0	32848	
4863	0	32613	
4864	0	32440	
4865	0	32400	
4866	0	32452	
4867	0	32496	
4868	0	32604	
4869	0	32656	
4870	0	32736	
4871	0	32765	
4872	0	32884	
4873	0	32840	
4874	0	32808	
4875	0	32840	
4876	0	32936	
4877	0	32952	
4878	0	33052	
4879	0	33084	
4880	0	32948	
4881	0	32952	
4882	0	32814	
4883	0	32648	
4884	0	32654	
4885	0	32748	
4886	0	32796	
4887	0	32748	
4888	0	32488	
4889	0	32616	
4890	0	32604	
4891	0	32568	
4892	0	32688	
4893	0	32722	
4894	0	32864	
4895	0	32928	
4896	0	32928	
4897	0	32964	
4898	0	32992	
4899	0	32920	
4900	0	32796	
4901	0	32844	
4902	0	32756	
4903	0	32636	
4904	0	32832	
4905	0	32716	
4906	0	32693	
4907	0	32824	
4908	0	32624	
4909	0	32572	
4910	0	32720	
4911	0	32670	
4912	0	32676	
4913	0	32768	
4914	0	32936	
4915	0	32964	
4916	0	33044	
4917	0	33032	
4918	0	32952	
4919	0	32876	
4920	0	32812	
4921	0	32753	
4922	0	32680	
4923	0	32768	
4924	0	32728	
4925	0	32661	
4926	0	32616	
4927	0	32660	
4928	0	32640	
4929	0	32629	
4930	0	32694	
4931	0	32768	
4932	0	32752	
4933	0	32676	
4934	0	32840	
4935	0	32909	
4936	0	33040	
4937	0	33016	
4938	0	33000	
4939	0	32992	
4940	0	32844	
4941	0	32728	
4942	0	32796	
4943	0	32688	
4944	0	32664	
4945	0	32676	
4946	0	32660	
4947	0	32708	
4948	0	32524	
4949	0	32520	
4950	0	32544	
4951	0	32752	
4952	0	32840	
4953	0	32972	
4954	0	33024	
4955	0	33132	
4956	0	33108	
4957	0	33108	
4958	0	33028	
4959	0	32768	
4960	0	32668	
4961	0	32593	
4962	0	32608	
4963	0	32700	
4964	0	32758	
4965	0	32752	
4966	0	32756	
4967	0	32696	
4968	0	32536	
4969	0	32521	
4970	0	32572	
4971	0	32712	
4972	0	32732	
4973	0	32824	
4974	0	32828	
4975	0	33016	
4976	0	32997	
4977	0	32976	
4978	0	32968	
4979	0	32920	
4980	0	32894	
4981	0	32848	
4982	0	32789	
4983	0	32713	
4984	0	32696	
4985	0	32640	
4986	0	32640	
4987	0	32620	
4988	0	32548	
4989	0	32552	
4990	0	32616	
4991	0	32620	
4992	0	32744	
4993	0	32732	
4994	0	32860	
4995	0	33033	
4996	0	32983	
4997	0	33038	
4998	0	32992	
4999	0	32900	
5000	0	32806	
5001	0	32702	
5002	0	32740	
5003	0	32716	
5004	0	32600	
5005	0	32633	
5006	0	32624	
5007	0	32708	
5008	0	32680	
5009	0	32597	
5010	0	32776	
5011	0	32832	
5012	0	32742	
5013	0	32825	
5014	0	32816	
5015	0	32856	
5016	0	32928	
5017	0	33064	
5018	0	33068	
5019	0	32944	
5020	0	32852	
5021	0	32832	
5022	0	32712	
5023	0	32800	
5024	0	32790	
5025	0	32636	
5026	0	32544	
5027	0	32520	
5028	0	32422	
5029	0	32576	
5030	0	32670	
5031	0	32788	
5032	0	32776	
5033	0	32756	
5034	0	32856	
5035	0	33004	
5036	0	33028	
5037	0	33028	
5038	0	32920	
5039	0	32844	
5040	0	32812	
5041	0	32692	
5042	0	32726	
5043	0	32764	
5044	0	32800	
5045	0	32832	
5046	0	32836	
5047	0	32732	
5048	0	32609	
5049	0	32544	
5050	0	32604	
5051	0	32586	
5052	0	32736	
5053	0	32688	
5054	0	32864	
5055	0	32985	
5056	0	32992	
5057	0	33029	
5058	0	32924	
5059	0	32872	
5060	0	32780	
5061	0	32821	
5062	0	32716	
5063	0	32612	
5064	0	32700	
5065	0	32784	
5066	0	32916	
5067	0	32888	
5068	0	32548	
5069	0	32432	
5070	0	32556	
5071	0	32668	
5072	0	32832	
5073	0	32704	
5074	0	32876	
5075	0	32968	
5076	0	32896	
5077	0	32848	
5078	0	32928	
5079	0	33004	
5080	0	32824	
5081	0	32804	
5082	0	32668	
5083	0	32744	
5084	0	32684	
5085	0	32740	
5086	0	32700	
5087	0	32660	
5088	0	32492	
5089	0	32656	
5090	0	32748	
5091	0	32660	
5092	0	32792	
5093	0	32824	
5094	0	32868	
5095	0	32980	
5096	0	33072	
5097	0	33020	
5098	0	32932	
5099	0	32936	
5100	0	32876	
5101	0	32828	
5102	0	32686	
5103	0	32672	
5104	0	32712	
5105	0	32597	
5106	0	32584	
5107	0	32712	
5108	0	32544	
5109	0	32540	
5110	0	32576	
5111	0	32705	
5112	0	32724	
5113	0	32704	
5114	0	32877	
5115	0	33008	
5116	0	33036	
5117	0	33140	
5118	0	32961	
5119	0	33052	
5120	0	33061	
5121	0	33096	
5122	0	32768	
5123	0	32750	
5124	0	32633	
5125	0	32724	
5126	0	32756	
5127	0	32544	
5128	0	32548	
5129	0	32528	
5130	0	32520	
5131	0	32576	
5132	0	32620	
5133	0	32685	
5134	0	33112	
5135	0	33304	
5136	0	33156	
5137	0	33048	
5138	0	32820	
5139	0	32672	
5140	0	32664	
5141	0	32636	
5142	0	32676	
5143	0	32680	
5144	0	32600	
5145	0	32560	
5146	0	32564	
5147	0	32612	
5148	0	32468	
5149	0	32480	
5150	0	32548	
5151	0	32576	
5152	0	32704	
5153	0	32836	
5154	0	33080	
5155	0	33004	
5156	0	32848	
5157	0	32844	
5158	0	32596	
5159	0	32708	
5160	0	32792	
5161	0	32812	
5162	0	32926	
5163	0	33000	
5164	0	33184	
5165	0	33188	
5166	0	33169	
5167	0	33148	
5168	0	32812	
5169	0	33016	
5170	0	33272	
5171	0	33012	
5172	0	32588	
5173	0	32500	
5174	0	32452	
5175	0	32504	
5176	0	32440	
5177	0	32424	
5178	0	32532	
5179	0	32820	
5180	0	32868	
5181	0	33012	
5182	0	33060	
5183	0	33064	
5184	0	33137	
5185	0	32872	
5186	0	32016	
5187	0	31528	
5188	0	31236	
5189	0	31404	
5190	0	31621	
5191	0	31984	
5192	0	32256	
5193	0	32192	
5194	0	32688	
5195	0	33468	
5196	0	33980	
5197	0	34564	
5198	0	34780	
5199	0	34744	
5200	0	34453	
5201	0	34228	
5202	0	34124	
5203	0	33719	
5204	0	33024	
5205	0	32268	
5206	0	31908	
5207	0	30744	
5208	0	29688	
5209	0	30416	
5210	0	31168	
5211	0	31464	
5212	0	31940	
5213	0	32522	
5214	0	33420	
5215	0	33964	
5216	0	34256	
5217	0	34668	
5218	0	34753	
5219	0	34704	
5220	0	34160	
5221	0	33812	
5222	0	33764	
5223	0	33340	
5224	0	33088	
5225	0	32744	
5226	0	32296	
5227	0	32528	
5228	0	31696	
5229	0	31060	
5230	0	30768	
5231	0	31232	
5232	0	31696	
5233	0	32396	
5234	0	33172	
5235	0	33472	
5236	0	33504	
5237	0	33448	
5238	0	33384	
5239	0	33252	
5240	0	32796	
5241	0	32500	
5242	0	32284	
5243	0	30992	
5244	0	28892	
5245	0	26756	
5246	0	26046	
5247	0	26980	
5248	0	29012	
5249	0	31732	
5250	0	34468	
5251	0	36480	
5252	0	38264	
5253	0	39508	
5254	0	40532	
5255	0	40468	
5256	0	39751	
5257	0	37920	
5258	0	34728	
5259	0	31948	
5260	0	29925	
5261	0	29264	
5262	0	28528	
5263	0	28244	
5264	0	28455	
5265	0	28933	
5266	0	30398	
5267	0	32356	
5268	0	32852	
5269	0	33720	
5270	0	34692	
5271	0	35120	
5272	0	35492	
5273	0	36053	
5274	0	36652	
5275	0	37136	
5276	0	36052	
5277	0	34364	
5278	0	33008	
5279	0	32496	
5280	0	32332	
5281	0	31996	
5282	0	32188	
5283	0	31620	
5284	0	30829	
5285	0	30864	
5286	0	31232	
5287	0	31020	
5288	0	30280	
5289	0	29816	
5290	0	28512	
5291	0	28364	
5292	0	29196	
5293	0	30892	
5294	0	32976	
5295	0	34680	
5296	0	35244	
5297	0	35417	
5298	0	35072	
5299	0	34604	
5300	0	34020	
5301	0	34076	
5302	0	33509	
5303	0	31948	
5304	0	29884	
5305	0	29284	
5306	0	28812	
5307	0	29904	
5308	0	31185	
5309	0	32896	
5310	0	34597	
5311	0	34076	
5312	0	34060	
5313	0	34740	
5314	0	35588	
5315	0	36080	
5316	0	36148	
5317	0	36214	
5318	0	36220	
5319	0	35192	
5320	0	31900	
5321	0	30024	
5322	0	30052	
5323	0	31300	
5324	0	31696	
5325	0	31012	
5326	0	31484	
5327	0	32380	
5328	0	32448	
5329	0	32776	
5330	0	33636	
5331	0	34800	
5332	0	35888	
5333	0	36860	
5334	0	37637	
5335	0	37060	
5336	0	35788	
5337	0	32286	
5338	0	29024	
5339	0	28064	
5340	0	27116	
5341	0	25704	
5342	0	26157	
5343	0	28896	
5344	0	30330	
5345	0	30316	
5346	0	30484	
5347	0	31236	
5348	0	32661	
5349	0	34948	
5350	0	37504	
5351	0	39064	
5352	0	38876	
5353	0	38400	
5354	0	37784	
5355	0	37124	
5356	0	36044	
5357	0	34852	
5358	0	34236	
5359	0	33060	
5360	0	32000	
5361	0	31052	
5362	0	30656	
5363	0	30512	
5364	0	31152	
5365	0	31704	
5366	0	31420	
5367	0	30436	
5368	0	29264	
5369	0	26285	
5370	0	24492	
5371	0	26409	
5372	0	28108	
5373	0	29496	
5374	0	31408	
5375	0	32416	
5376	0	32871	
5377	0	34120	
5378	0	35196	
5379	0	36644	
5380	0	37844	
5381	0	37968	
5382	0	38908	
5383	0	39928	
5384	0	39368	
5385	0	37700	
5386	0	36300	
5387	0	34616	
5388	0	31504	
5389	0	30892	
5390	0	30056	
5391	0	28640	
5392	0	26660	
5393	0	25239	
5394	0	24012	
5395	0	23000	
5396	0	24856	
5397	0	26770	
5398	0	30864	
5399	0	34806	
5400	0	38524	
5401	0	41621	
5402	0	43564	
5403	0	44112	
5404	0	43012	
5405	0	42000	
5406	0	41200	
5407	0	39964	
5408	0	37908	
5409	0	34384	
5410	0	30496	
5411	0	28401	
5412	0	27860	
5413	0	26952	
5414	0	23981	
5415	0	18928	
5416	0	19768	
5417	0	24476	
5418	0	28776	
5419	0	32568	
5420	0	35396	
5421	0	37712	
5422	0	38948	
5423	0	39340	
5424	0	39216	
5425	0	39076	
5426	0	38400	
5427	0	36808	
5428	0	34093	
5429	0	31900	
5430	0	30048	
5431	0	28544	
5432	0	28833	
5433	0	30220	
5434	0	31060	
5435	0	30680	
5436	0	31600	
5437	0	32184	
5438	0	31768	
5439	0	30904	
5440	0	30752	
5441	0	30496	
5442	0	30572	
5443	0	31180	
5444	0	31596	
5445	0	31508	
5446	0	31288	
5447	0	31652	
5448	0	31692	
5449	0	32033	
5450	0	32508	
5451	0	33320	
5452	0	33841	
5453	0	34124	
5454	0	32280	
5455	0	30502	
5456	0	30929	
5457	0	31912	
5458	0	28532	
5459	0	26676	
5460	0	28060	
5461	0	31704	
5462	0	34756	
5463	0	35804	
5464	0	37904	
5465	0	39456	
5466	0	41720	
5467	0	43328	
5468	0	40836	
5469	0	40452	
5470	0	40024	
5471	0	39708	
5472	0	39972	
5473	0	36472	
5474	0	34080	
5475	0	31900	
5476	0	30272	
5477	0	28712	
5478	0	27164	
5479	0	26976	
5480	0	26492	
5481	0	27572	
5482	0	28128	
5483	0	28644	
5484	0	30220	
5485	0	31304	
5486	0	31936	
5487	0	32168	
5488	0	31000	
5489	0	32596	
5490	0	34012	
5491	0	34888	
5492	0	35030	
5493	0	35040	
5494	0	34500	
5495	0	33748	
5496	0	33128	
5497	0	32800	
5498	0	32412	
5499	0	32020	
5500	0	32312	
5501	0	32208	
5502	0	32012	
5503	0	29472	
5504	0	26792	
5505	0	27840	
5506	0	29784	
5507	0	31532	
5508	0	32476	
5509	0	33488	
5510	0	34336	
5511	0	35045	
5512	0	35040	
5513	0	35092	
5514	0	35364	
5515	0	34916	
5516	0	34440	
5517	0	34520	
5518	0	34136	
5519	0	33093	
5520	0	31548	
5521	0	30904	
5522	0	31358	
5523	0	31064	
5524	0	30224	
5525	0	29356	
5526	0	27865	
5527	0	28476	
5528	0	29996	
5529	0	31586	
5530	0	32540	
5531	0	33853	
5532	0	36372	
5533	0	37920	
5534	0	38776	
5535	0	39124	
5536	0	38792	
5537	0	37992	
5538	0	35237	
5539	0	31426	
5540	0	28744	
5541	0	27800	
5542	0	28440	
5543	0	29204	
5544	0	30420	
5545	0	31868	
5546	0	33525	
5547	0	33440	
5548	0	33586	
5549	0	33548	
5550	0	30929	
5551	0	31052	
5552	0	32776	
5553	0	35220	
5554	0	37040	
5555	0	38456	
5556	0	38296	
5557	0	36854	
5558	0	34492	
5559	0	34117	
5560	0	33460	
5561	0	32852	
5562	0	32228	
5563	0	32096	
5564	0	31324	
5565	0	31168	
5566	0	31204	
5567	0	31496	
5568	0	31092	
5569	0	30728	
5570	0	30624	
5571	0	30460	
5572	0	30686	
5573	0	31460	
5574	0	31188	
5575	0	31380	
5576	0	32272	
5577	0	32829	
5578	0	32836	
5579	0	32784	
5580	0	32884	
5581	0	32472	
5582	0	32512	
5583	0	32420	
5584	0	32048	
5585	0	31476	
5586	0	32016	
5587	0	32760	
5588	0	33493	
5589	0	33772	
5590	0	33014	
5591	0	32328	
5592	0	32028	
5593	0	32196	
5594	0	32240	
5595	0	32096	
5596	0	30724	
5597	0	30633	
5598	0	31084	
5599	0	31956	
5600	0	32864	
5601	0	34328	
5602	0	34304	
5603	0	33712	
5604	0	33062	
5605	0	33828	
5606	0	34736	
5607	0	34596	
5608	0	33312	
5609	0	33120	
5610	0	33728	
5611	0	33396	
5612	0	32864	
5613	0	33092	
5614	0	32724	
5615	0	32892	
5616	0	34184	
5617	0	36260	
5618	0	37040	
5619	0	36524	
5620	0	36376	
5621	0	36116	
5622	0	34428	
5623	0	33900	
5624	0	33652	
5625	0	31716	
5626	0	29824	
5627	0	30048	
5628	0	30112	
5629	0	28234	
5630	0	25165	
5631	0	27380	
5632	0	29960	
5633	0	31252	
5634	0	32320	
5635	0	34052	
5636	0	35548	
5637	0	36156	
5638	0	36568	
5639	0	36292	
5640	0	35280	
5641	0	35148	
5642	0	34972	
5643	0	34540	
5644	0	33188	
5645	0	32536	
5646	0	32480	
5647	0	30792	
5648	0	29677	
5649	0	29845	
5650	0	30612	
5651	0	31168	
5652	0	31682	
5653	0	32380	
5654	0	32596	
5655	0	32496	
5656	0	32120	
5657	0	32292	
5658	0	32868	
5659	0	33620	
5660	0	33468	
5661	0	32684	
5662	0	32556	
5663	0	32248	
5664	0	32846	
5665	0	32708	
5666	0	32164	
5667	0	31868	
5668	0	32252	
5669	0	32304	
5670	0	32434	
5671	0	32568	
5672	0	32653	
5673	0	32652	
5674	0	32932	
5675	0	32972	
5676	0	31324	
5677	0	30688	
5678	0	31486	
5679	0	32588	
5680	0	33352	
5681	0	33852	
5682	0	34108	
5683	0	33472	
5684	0	32600	
5685	0	32196	
5686	0	32048	
5687	0	31044	
5688	0	31752	
5689	0	33088	
5690	0	35100	
5691	0	35260	
5692	0	35704	
5693	0	35416	
5694	0	34800	
5695	0	33936	
5696	0	32960	
5697	0	29796	
5698	0	30184	
5699	0	31138	
5700	0	29345	
5701	0	29095	
5702	0	31176	
5703	0	34004	
5704	0	34617	
5705	0	33700	
5706	0	34824	
5707	0	36464	
5708	0	37481	
5709	0	38224	
5710	0	38444	
5711	0	37520	
5712	0	34988	
5713	0	33624	
5714	0	32749	
5715	0	31796	
5716	0	32244	
5717	0	33032	
5718	0	32520	
5719	0	31500	
5720	0	31494	
5721	0	31224	
5722	0	31468	
5723	0	31264	
5724	0	31032	
5725	0	30376	
5726	0	30469	
5727	0	30608	
5728	0	30364	
5729	0	30632	
5730	0	30620	
5731	0	31004	
5732	0	31316	
5733	0	32180	
5734	0	32548	
5735	0	32932	
5736	0	33656	
5737	0	33332	
5738	0	33024	
5739	0	33279	
5740	0	33184	
5741	0	32924	
5742	0	32704	
5743	0	32512	
5744	0	32508	
5745	0	32074	
5746	0	31840	
5747	0	32192	
5748	0	31808	
5749	0	30532	
5750	0	31560	
5751	0	33120	
5752	0	33678	
5753	0	33548	
5754	0	33064	
5755	0	32636	
5756	0	33420	
5757	0	34882	
5758	0	35740	
5759	0	34684	
5760	0	33300	
5761	0	33108	
5762	0	32524	
5763	0	29960	
5764	0	28056	
5765	0	29153	
5766	0	31292	
5767	0	34204	
5768	0	35228	
5769	0	36212	
5770	0	37052	
5771	0	37292	
5772	0	36892	
5773	0	37060	
5774	0	37150	
5775	0	36880	
5776	0	36916	
5777	0	34536	
5778	0	32592	
5779	0	31460	
5780	0	29516	
5781	0	29033	
5782	0	27996	
5783	0	28160	
5784	0	29596	
5785	0	30497	
5786	0	31224	
5787	0	31432	
5788	0	32320	
5789	0	33100	
5790	0	33582	
5791	0	33680	
5792	0	33348	
5793	0	32912	
5794	0	32800	
5795	0	32864	
5796	0	33020	
5797	0	33000	
5798	0	32960	
5799	0	32592	
5800	0	32372	
5801	0	31904	
5802	0	31788	
5803	0	31908	
5804	0	32336	
5805	0	31966	
5806	0	32300	
5807	0	32676	
5808	0	32800	
5809	0	32285	
5810	0	32256	
5811	0	32612	
5812	0	33041	
5813	0	33724	
5814	0	33852	
5815	0	33940	
5816	0	33780	
5817	0	33540	
5818	0	33480	
5819	0	33024	
5820	0	32608	
5821	0	32520	
5822	0	32552	
5823	0	32468	
5824	0	32308	
5825	0	32404	
5826	0	32415	
5827	0	32348	
5828	0	32284	
5829	0	32076	
5830	0	31757	
5831	0	31264	
5832	0	30244	
5833	0	30032	
5834	0	30584	
5835	0	30408	
5836	0	30444	
5837	0	29428	
5838	0	29140	
5839	0	30352	
5840	0	32628	
5841	0	33108	
5842	0	34792	
5843	0	37752	
5844	0	38344	
5845	0	39008	
5846	0	39668	
5847	0	39048	
5848	0	37416	
5849	0	36216	
5850	0	34977	
5851	0	34536	
5852	0	34208	
5853	0	34256	
5854	0	34501	
5855	0	33456	
5856	0	31072	
5857	0	29536	
5858	0	29512	
5859	0	29060	
5860	0	29800	
5861	0	29320	
5862	0	29636	
5863	0	30449	
5864	0	31560	
5865	0	32648	
5866	0	34036	
5867	0	35804	
5868	0	36464	
5869	0	35864	
5870	0	34156	
5871	0	33124	
5872	0	33316	
5873	0	34000	
5874	0	34228	
5875	0	32960	
5876	0	31476	
5877	0	30964	
5878	0	30628	
5879	0	30680	
5880	0	30572	
5881	0	30472	
5882	0	30760	
5883	0	31341	
5884	0	31420	
5885	0	31484	
5886	0	31895	
5887	0	31861	
5888	0	31684	
5889	0	31989	
5890	0	32858	
5891	0	33420	
5892	0	33488	
5893	0	33588	
5894	0	33364	
5895	0	33388	
5896	0	33400	
5897	0	33292	
5898	0	33216	
5899	0	33125	
5900	0	32982	
5901	0	32988	
5902	0	32876	
5903	0	32630	
5904	0	32604	
5905	0	32489	
5906	0	32492	
5907	0	32416	
5908	0	32480	
5909	0	32208	
5910	0	31445	
5911	0	30620	
5912	0	30593	
5913	0	31732	
5914	0	33388	
5915	0	34244	
5916	0	34820	
5917	0	35044	
5918	0	34916	
5919	0	34540	
5920	0	33816	
5921	0	32948	
5922	0	32949	
5923	0	33454	
5924	0	33372	
5925	0	33464	
5926	0	33276	
5927	0	32208	
5928	0	31220	
5929	0	31628	
5930	0	32704	
5931	0	33760	
5932	0	34156	
5933	0	34132	
5934	0	33732	
5935	0	32480	
5936	0	32360	
5937	0	31916	
5938	0	31612	
5939	0	31968	
5940	0	32320	
5941	0	32152	
5942	0	32048	
5943	0	31196	
5944	0	31600	
5945	0	31948	
5946	0	29652	
5947	0	27580	
5948	0	28008	
5949	0	30344	
5950	0	33128	
5951	0	34952	
5952	0	36500	
5953	0	37812	
5954	0	38224	
5955	0	36916	
5956	0	35972	
5957	0	35660	
5958	0	36100	
5959	0	35668	
5960	0	33688	
5961	0	32440	
5962	0	31408	
5963	0	31864	
5964	0	31624	
5965	0	31720	
5966	0	32236	
5967	0	31817	
5968	0	31796	
5969	0	32338	
5970	0	32704	
5971	0	31317	
5972	0	31292	
5973	0	31740	
5974	0	31548	
5975	0	30560	
5976	0	30596	
5977	0	30828	
5978	0	32432	
5979	0	33392	
5980	0	33080	
5981	0	32292	
5982	0	32808	
5983	0	34252	
5984	0	35264	
5985	0	34808	
5986	0	34196	
5987	0	33984	
5988	0	33856	
5989	0	33616	
5990	0	33444	
5991	0	33316	
5992	0	32688	
5993	0	33088	
5994	0	32744	
5995	0	32056	
5996	0	31692	
5997	0	31263	
5998	0	31176	
5999	0	31304	
6000	0	31624	
6001	0	31828	
6002	0	32017	
6003	0	32133	
6004	0	32272	
6005	0	32472	
6006	0	32576	
6007	0	32616	
6008	0	32804	
6009	0	32768	
6010	0	33004	
6011	0	33200	
6012	0	33148	
6013	0	33196	
6014	0	33154	
6015	0	33120	
6016	0	33108	
6017	0	33088	
6018	0	33018	
6019	0	32936	
6020	0	32892	
6021	0	32792	
6022	0	32676	
6023	0	32640	
6024	0	32688	
6025	0	32292	
6026	0	31808	
6027	0	31789	
6028	0	32148	
6029	0	32448	
6030	0	32645	
6031	0	33012	
6032	0	32889	
6033	0	31860	
6034	0	31444	
6035	0	31780	
6036	0	32488	
6037	0	32656	
6038	0	33164	
6039	0	32562	
6040	0	32720	
6041	0	33865	
6042	0	34804	
6043	0	35276	
6044	0	34520	
6045	0	33632	
6046	0	34540	
6047	0	34868	
6048	0	34222	
6049	0	33596	
6050	0	33616	
6051	0	33076	
6052	0	32212	
6053	0	31544	
6054	0	31960	
6055	0	31744	
6056	0	32308	
6057	0	32616	
6058	0	32168	
6059	0	32068	
6060	0	32700	
6061	0	32940	
6062	0	33110	
6063	0	33429	
6064	0	33856	
6065	0	33688	
6066	0	32830	
6067	0	32624	
6068	0	32640	
6069	0	32860	
6070	0	32844	
6071	0	32796	
6072	0	32236	
6073	0	31764	
6074	0	31768	
6075	0	31977	
6076	0	32286	
6077	0	32296	
6078	0	32244	
6079	0	32156	
6080	0	32161	
6081	0	32164	
6082	0	32320	
6083	0	31832	
6084	0	31152	
6085	0	31433	
6086	0	31664	
6087	0	30604	
6088	0	30445	
6089	0	30198	
6090	0	29745	
6091	0	30464	
6092	0	31104	
6093	0	32662	
6094	0	34837	
6095	0	36504	
6096	0	37208	
6097	0	37916	
6098	0	37920	
6099	0	37948	
6100	0	37312	
6101	0	33964	
6102	0	29156	
6103	0	30217	
6104	0	31876	
6105	0	31933	
6106	0	32152	
6107	0	33212	
6108	0	32136	
6109	0	28756	
6110	0	29576	
6111	0	32272	
6112	0	35072	
6113	0	37264	
6114	0	37767	
6115	0	35248	
6116	0	33212	
6117	0	31748	
6118	0	32892	
6119	0	34272	
6120	0	35268	
6121	0	35180	
6122	0	33576	
6123	0	32508	
6124	0	31873	
6125	0	32372	
6126	0	32229	
6127	0	31676	
6128	0	31552	
6129	0	31452	
6130	0	32224	
6131	0	32342	
6132	0	31520	
6133	0	31220	
6134	0	30824	
6135	0	30220	
6136	0	30444	
6137	0	30436	
6138	0	30452	
6139	0	30780	
6140	0	31528	
6141	0	32693	
6142	0	33640	
6143	0	34648	
6144	0	34876	
6145	0	35460	
6146	0	35828	
6147	0	34712	
6148	0	34068	
6149	0	33900	
6150	0	33508	
6151	0	32840	
6152	0	32640	
6153	0	31792	
6154	0	31776	
6155	0	31828	
6156	0	32248	
6157	0	32172	
6158	0	32113	
6159	0	32220	
6160	0	32380	
6161	0	32524	
6162	0	32420	
6163	0	32328	
6164	0	32364	
6165	0	32524	
6166	0	32528	
6167	0	32416	
6168	0	32424	
6169	0	32256	
6170	0	32384	
6171	0	32440	
6172	0	32712	
6173	0	33080	
6174	0	33352	
6175	0	33436	
6176	0	32510	
6177	0	29610	
6178	0	28996	
6179	0	30476	
6180	0	32192	
6181	0	33584	
6182	0	34876	
6183	0	35644	
6184	0	35744	
6185	0	35964	
6186	0	35832	
6187	0	35044	
6188	0	33465	
6189	0	32228	
6190	0	31636	
6191	0	30624	
6192	0	29312	
6193	0	29388	
6194	0	31680	
6195	0	33116	
6196	0	34228	
6197	0	35292	
6198	0	35734	
6199	0	36568	
6200	0	36852	
6201	0	36688	
6202	0	35092	
6203	0	33912	
6204	0	33056	
6205	0	31872	
6206	0	31652	
6207	0	31664	
6208	0	31256	
6209	0	30760	
6210	0	30717	
6211	0	30852	
6212	0	31268	
6213	0	31745	
6214	0	32036	
6215	0	32033	
6216	0	32052	
6217	0	32196	
6218	0	32260	
6219	0	32324	
6220	0	32348	
6221	0	32389	
6222	0	32472	
6223	0	32512	
6224	0	32596	
6225	0	32592	
6226	0	32624	
6227	0	32580	
6228	0	32752	
6229	0	32748	
6230	0	32887	
6231	0	32948	
6232	0	33068	
6233	0	33308	
6234	0	33340	
6235	0	33320	
6236	0	33380	
6237	0	33188	
6238	0	33033	
6239	0	32896	
6240	0	32796	
6241	0	32812	
6242	0	32708	
6243	0	32640	
6244	0	32640	
6245	0	32604	
6246	0	32560	
6247	0	32496	
6248	0	32540	
6249	0	32692	
6250	0	32736	
6251	0	32860	
6252	0	32968	
6253	0	33108	
6254	0	33136	
6255	0	33076	
6256	0	33164	
6257	0	33012	
6258	0	32812	
6259	0	32812	
6260	0	32736	
6261	0	32676	
6262	0	32629	
6263	0	32552	
6264	0	32608	
6265	0	32644	
6266	0	32552	
6267	0	32588	
6268	0	32544	
6269	0	32664	
6270	0	32668	
6271	0	32720	
6272	0	32792	
6273	0	32940	
6274	0	33064	
6275	0	32848	
6276	0	32884	
6277	0	32996	
6278	0	33216	
6279	0	33414	
6280	0	33372	
6281	0	33096	
6282	0	32688	
6283	0	32456	
6284	0	32440	
6285	0	32376	
6286	0	32313	
6287	0	32206	
6288	0	32485	
6289	0	32640	
6290	0	32756	
6291	0	32844	
6292	0	32944	
6293	0	33196	
6294	0	33188	
6295	0	33046	
6296	0	33060	
6297	0	32980	
6298	0	32808	
6299	0	32720	
6300	0	32724	
6301	0	32664	
6302	0	32620	
6303	0	32636	
6304	0	32636	
6305	0	32628	
6306	0	32568	
6307	0	32412	
6308	0	32448	
6309	0	32622	
6310	0	32720	
6311	0	32884	
6312	0	32992	
6313	0	33276	
6314	0	33180	
6315	0	32964	
6316	0	33060	
6317	0	32912	
6318	0	32816	
6319	0	32840	
6320	0	32752	
6321	0	32681	
6322	0	32640	
6323	0	32564	
6324	0	32580	
6325	0	32569	
6326	0	32460	
6327	0	32484	
6328	0	32500	
6329	0	32664	
6330	0	32840	
6331	0	32876	
6332	0	32980	
6333	0	33177	
6334	0	33216	
6335	0	33052	
6336	0	33069	
6337	0	32940	
6338	0	32824	
6339	0	32756	
6340	0	32673	
6341	0	32636	
6342	0	32676	
6343	0	32584	
6344	0	32648	
6345	0	32648	
6346	0	32636	
6347	0	32492	
6348	0	32508	
6349	0	32592	
6350	0	32708	
6351	0	32772	
6352	0	32840	
6353	0	33072	
6354	0	33056	
6355	0	33116	
6356	0	33257	
6357	0	33100	
6358	0	32892	
6359	0	32848	
6360	0	32681	
6361	0	32660	
6362	0	32648	
6363	0	32576	
6364	0	32588	
6365	0	32700	
6366	0	32680	
6367	0	32488	
6368	0	32548	
6369	0	32548	
6370	0	32676	
6371	0	32644	
6372	0	32876	
6373	0	33084	
6374	0	33068	
6375	0	32968	
6376	0	33012	
6377	0	33040	
6378	0	32976	
6379	0	32868	
6380	0	32744	
6381	0	32792	
6382	0	32800	
6383	0	32804	
6384	0	32452	
6385	0	32484	
6386	0	32452	
6387	0	32428	
6388	0	32620	
6389	0	32720	
6390	0	32808	
6391	0	32784	
6392	0	32944	
6393	0	33064	
6394	0	33158	
6395	0	33065	
6396	0	33060	
6397	0	32984	
6398	0	32824	
6399	0	32884	
6400	0	32864	
6401	0	32652	
6402	0	32576	
6403	0	32558	
6404	0	32552	
6405	0	32696	
6406	0	32532	
6407	0	32448	
6408	0	32484	
6409	0	32616	
6410	0	32748	
6411	0	32744	
6412	0	32784	
6413	0	32940	
6414	0	33006	
6415	0	33045	
6416	0	33040	
6417	0	33144	
6418	0	33032	
6419	0	32933	
6420	0	32760	
6421	0	32693	
6422	0	32652	
6423	0	32612	
6424	0	32632	
6425	0	32580	
6426	0	32436	
6427	0	32622	
6428	0	32660	
6429	0	32708	
6430	0	32664	
6431	0	32711	
6432	0	32752	
6433	0	32896	
6434	0	33080	
6435	0	33069	
6436	0	32996	
6437	0	32792	
6438	0	32824	
6439	0	32685	
6440	0	32766	
6441	0	32612	
6442	0	32584	
6443	0	32548	
6444	0	32620	
6445	0	32791	
6446	0	32533	
6447	0	32488	
6448	0	32672	
6449	0	32656	
6450	0	32740	
6451	0	32732	
6452	0	33016	
6453	0	33216	
6454	0	33248	
6455	0	33108	
6456	0	32964	
6457	0	32752	
6458	0	32600	
6459	0	32652	
6460	0	32670	
6461	0	32700	
6462	0	32688	
6463	0	32720	
6464	0	32808	
6465	0	32888	
6466	0	32888	
6467	0	32756	
6468	0	32696	
6469	0	32612	
6470	0	32588	
6471	0	32664	
6472	0	32766	
6473	0	33004	
6474	0	32972	
6475	0	33004	
6476	0	33012	
6477	0	32860	
6478	0	32792	
6479	0	32708	
6480	0	32704	
6481	0	32756	
6482	0	32716	
6483	0	32648	
6484	0	32586	
6485	0	32692	
6486	0	32510	
6487	0	32572	
6488	0	32652	
6489	0	32660	
6490	0	32804	
6491	0	32864	
6492	0	32988	
6493	0	33168	
6494	0	33200	
6495	0	32968	
6496	0	32856	
6497	0	32724	
6498	0	32664	
6499	0	32836	
6500	0	32768	
6501	0	32716	
6502	0	32792	
6503	0	32812	
6504	0	32804	
6505	0	32760	
6506	0	32588	
6507	0	32496	
6508	0	32566	
6509	0	32637	
6510	0	32688	
6511	0	32672	
6512	0	32892	
6513	0	33168	
6514	0	33116	
6515	0	33172	
6516	0	33120	
6517	0	33116	
6518	0	32869	
6519	0	32668	
6520	0	32732	
6521	0	32526	
6522	0	32540	
6523	0	32620	
6524	0	32628	
6525	0	32632	
6526	0	32516	
6527	0	32589	
6528	0	32676	
6529	0	32773	
6530	0	32896	
6531	0	32746	
6532	0	32909	
6533	0	33084	
6534	0	32956	
6535	0	32894	
6536	0	32896	
6537	0	32858	
6538	0	32804	
6539	0	32836	
6540	0	32772	
6541	0	32868	
6542	0	32928	
6543	0	32862	
6544	0	32588	
6545	0	32500	
6546	0	32342	
6547	0	32492	
6548	0	32548	
6549	0	32720	
6550	0	32868	
6551	0	33108	
6552	0	33429	
6553	0	33466	
6554	0	33244	
6555	0	32740	
6556	0	32493	
6557	0	32516	
6558	0	32686	
6559	0	32744	
6560	0	32768	
6561	0	32768	
6562	0	32692	
6563	0	32700	
6564	0	32588	
6565	0	32684	
6566	0	32480	
6567	0	32468	
6568	0	32588	
6569	0	32648	
6570	0	32748	
6571	0	32788	
6572	0	32960	
6573	0	33084	
6574	0	33053	
6575	0	33056	
6576	0	33072	
6577	0	32920	
6578	0	32836	
6579	0	32820	
6580	0	32757	
6581	0	32664	
6582	0	32652	
6583	0	32640	
6584	0	32624	
6585	0	32736	
6586	0	32516	
6587	0	32552	
6588	0	32616	
6589	0	32712	
6590	0	32804	
6591	0	32796	
6592	0	32984	
6593	0	33032	
6594	0	33080	
6595	0	33116	
6596	0	33044	
6597	0	32844	
6598	0	32777	
6599	0	32694	
6600	0	32672	
6601	0	32648	
6602	0	32632	
6603	0	32706	
6604	0	32632	
6605	0	32664	
6606	0	32500	
6607	0	32492	
6608	0	32444	
6609	0	32572	
6610	0	32736	
6611	0	32852	
6612	0	33200	
6613	0	33276	
6614	0	33336	
6615	0	33168	
6616	0	32892	
6617	0	32616	
6618	0	32654	
6619	0	32785	
6620	0	32797	
6621	0	32916	
6622	0	32952	
6623	0	32816	
6624	0	32682	
6625	0	32576	
6626	0	32324	
6627	0	32524	
6628	0	32508	
6629	0	32600	
6630	0	32622	
6631	0	32684	
6632	0	32940	
6633	0	33152	
6634	0	33172	
6635	0	33180	
6636	0	32884	
6637	0	32794	
6638	0	32824	
6639	0	32728	
6640	0	32676	
6641	0	32628	
6642	0	32708	
6643	0	32680	
6644	0	32652	
6645	0	32696	
6646	0	32488	
6647	0	32528	
6648	0	32580	
6649	0	32668	
6650	0	32746	
6651	0	32736	
6652	0	33056	
6653	0	33116	
6654	0	33044	
6655	0	33044	
6656	0	33041	
6657	0	32857	
6658	0	32792	
6659	0	32788	
6660	0	32796	
6661	0	32704	
6662	0	32688	
6663	0	32692	
6664	0	32720	
6665	0	32656	
6666	0	32528	
6667	0	32536	
6668	0	32560	
6669	0	32758	
6670	0	32764	
6671	0	32772	
6672	0	32917	
6673	0	33033	
6674	0	33028	
6675	0	33108	
6676	0	33048	
6677	0	32924	
6678	0	32856	
6679	0	32800	
6680	0	32772	
6681	0	32716	
6682	0	32680	
6683	0	32564	
6684	0	32684	
6685	0	32668	
6686	0	32496	
6687	0	32592	
6688	0	32528	
6689	0	32608	
6690	0	32708	
6691	0	32774	
6692	0	33085	
6693	0	33208	
6694	0	33020	
6695	0	32916	
6696	0	32876	
6697	0	32972	
6698	0	32929	
6699	0	32928	
6700	0	32812	
6701	0	32776	
6702	0	32656	
6703	0	32468	
6704	0	32492	
6705	0	32590	
6706	0	32532	
6707	0	32662	
6708	0	32756	
6709	0	32728	
6710	0	32752	
6711	0	32750	
6712	0	32964	
6713	0	33088	
6714	0	33220	
6715	0	33248	
6716	0	33064	
6717	0	33024	
6718	0	32904	
6719	0	32728	
6720	0	32621	
6721	0	32580	
6722	0	32516	
6723	0	32600	
6724	0	32533	
6725	0	32613	
6726	0	32524	
6727	0	32516	
6728	0	32552	
6729	0	32584	
6730	0	32644	
6731	0	32796	
6732	0	33004	
6733	0	33060	
6734	0	33104	
6735	0	33086	
6736	0	32964	
6737	0	32872	
6738	0	32776	
6739	0	32722	
6740	0	32748	
6741	0	32672	
6742	0	32688	
6743	0	32692	
6744	0	32652	
6745	0	32644	
6746	0	32660	
6747	0	32608	
6748	0	32696	
6749	0	32764	
6750	0	32808	
6751	0	32740	
6752	0	32908	
6753	0	33062	
6754	0	33020	
6755	0	33008	
6756	0	32945	
6757	0	32876	
6758	0	32864	
6759	0	32749	
6760	0	32716	
6761	0	32684	
6762	0	32676	
6763	0	32576	
6764	0	32620	
6765	0	32584	
6766	0	32473	
6767	0	32520	
6768	0	32684	
6769	0	32700	
6770	0	32716	
6771	0	32732	
6772	0	33060	
6773	0	33309	
6774	0	33348	
6775	0	33160	
6776	0	32878	
6777	0	32800	
6778	0	32569	
6779	0	32564	
6780	0	32628	
6781	0	32596	
6782	0	32720	
6783	0	32692	
6784	0	32808	
6785	0	32684	
6786	0	32332	
6787	0	32420	
6788	0	32616	
6789	0	32818	
6790	0	32900	
6791	0	33032	
6792	0	33292	
6793	0	33176	
6794	0	32932	
6795	0	32933	
6796	0	32904	
6797	0	32856	
6798	0	32790	
6799	0	32668	
6800	0	32752	
6801	0	32836	
6802	0	32808	
6803	0	32740	
6804	0	32652	
6805	0	32568	
6806	0	32292	
6807	0	32416	
6808	0	32480	
6809	0	32724	
6810	0	32772	
6811	0	32792	
6812	0	32980	
6813	0	33053	
6814	0	32944	
6815	0	33072	
6816	0	33064	
6817	0	32880	
6818	0	32784	
6819	0	32716	
6820	0	32724	
6821	0	32760	
6822	0	32784	
6823	0	32748	
6824	0	32737	
6825	0	32708	
6826	0	32557	
6827	0	32560	
6828	0	32548	
6829	0	32588	
6830	0	32784	
6831	0	32792	
6832	0	32976	
6833	0	33016	
6834	0	33020	
6835	0	33008	
6836	0	32933	
6837	0	32825	
6838	0	32784	
6839	0	32688	
6840	0	32735	
6841	0	32732	
6842	0	32732	
6843	0	32636	
6844	0	32532	
6845	0	32660	
6846	0	32528	
6847	0	32608	
6848	0	32748	
6849	0	32880	
6850	0	32872	
6851	0	32916	
6852	0	33068	
6853	0	33074	
6854	0	33096	
6855	0	33072	
6856	0	32884	
6857	0	32908	
6858	0	32869	
6859	0	32680	
6860	0	32640	
6861	0	32716	
6862	0	32656	
6863	0	32686	
6864	0	32552	
6865	0	32618	
6866	0	32456	
6867	0	32576	
6868	0	32740	
6869	0	32812	
6870	0	32848	
6871	0	32868	
6872	0	33100	
6873	0	33296	
6874	0	33240	
6875	0	33056	
6876	0	32836	
6877	0	32660	
6878	0	32636	
6879	0	32544	
6880	0	32660	
6881	0	32628	
6882	0	32528	
6883	0	32448	
6884	0	32548	
6885	0	32676	
6886	0	32528	
6887	0	32632	
6888	0	32845	
6889	0	33097	
6890	0	33152	
6891	0	32972	
6892	0	32989	
6893	0	32904	
6894	0	32688	
6895	0	32772	
6896	0	32848	
6897	0	32828	
6898	0	32812	
6899	0	32836	
6900	0	32732	
6901	0	32732	
6902	0	32670	
6903	0	32716	
6904	0	32620	
6905	0	32628	
6906	0	32520	
6907	0	32608	
6908	0	32628	
6909	0	32696	
6910	0	32812	
6911	0	32796	
6912	0	32892	
6913	0	33020	
6914	0	32972	
6915	0	33093	
6916	0	32956	
6917	0	32832	
6918	0	32828	
6919	0	32801	
6920	0	32868	
6921	0	32752	
6922	0	32612	
6923	0	32648	
6924	0	32556	
6925	0	32616	
6926	0	32620	
6927	0	32576	
6928	0	32524	
6929	0	32661	
6930	0	32788	
6931	0	32756	
6932	0	32936	
6933	0	32996	
6934	0	32976	
6935	0	33236	
6936	0	33132	
6937	0	32912	
6938	0	32712	
6939	0	32712	
6940	0	32760	
6941	0	32696	
6942	0	32709	
6943	0	32684	
6944	0	32620	
6945	0	32628	
6946	0	32508	
6947	0	32536	
6948	0	32655	
6949	0	32893	
6950	0	32908	
6951	0	32764	
6952	0	32944	
6953	0	32958	
6954	0	32936	
6955	0	33036	
6956	0	32936	
6957	0	32772	
6958	0	32824	
6959	0	32688	
6960	0	32685	
6961	0	32680	
6962	0	32748	
6963	0	32780	
6964	0	32724	
6965	0	32620	
6966	0	32500	
6967	0	32444	
6968	0	32576	
6969	0	32716	
6970	0	32833	
6971	0	32768	
6972	0	32968	
6973	0	32992	
6974	0	32886	
6975	0	32792	
6976	0	32820	
6977	0	32980	
6978	0	32996	
6979	0	32964	
6980	0	32924	
6981	0	33132	
6982	0	32976	
6983	0	32718	
6984	0	32584	
6985	0	32444	
6986	0	32428	
6987	0	32474	
6988	0	32584	
6989	0	32744	
6990	0	32692	
6991	0	32628	
6992	0	32860	
6993	0	33028	
6994	0	33144	
6995	0	33128	
6996	0	33152	
6997	0	32932	
6998	0	32824	
6999	0	32736	
7000	0	32724	
7001	0	32760	
7002	0	32600	
7003	0	32612	
7004	0	32588	
7005	0	32580	
7006	0	32512	
7007	0	32612	
7008	0	32584	
7009	0	32688	
7010	0	32770	
7011	0	32804	
7012	0	33021	
7013	0	33080	
7014	0	33084	
7015	0	33006	
7016	0	32960	
7017	0	32908	
7018	0	32792	
7019	0	32708	
7020	0	32712	
7021	0	32701	
7022	0	32656	
7023	0	32636	
7024	0	32728	
7025	0	32744	
7026	0	32620	
7027	0	32417	
7028	0	32549	
7029	0	32757	
7030	0	32880	
7031	0	32852	
7032	0	32960	
7033	0	32960	
7034	0	32988	
7035	0	33036	
7036	0	32908	
7037	0	32796	
7038	0	32724	
7039	0	32764	
7040	0	32852	
7041	0	32892	
7042	0	32860	
7043	0	32788	
7044	0	32648	
7045	0	32588	
7046	0	32352	
7047	0	32464	
7048	0	32548	
7049	0	32712	
7050	0	32728	
7051	0	32736	
7052	0	32992	
7053	0	33004	
7054	0	32924	
7055	0	32984	
7056	0	33038	
7057	0	32918	
7058	0	32740	
7059	0	32752	
7060	0	32768	
7061	0	32756	
7062	0	32709	
7063	0	32744	
7064	0	32565	
7065	0	32653	
7066	0	32628	
7067	0	32756	
7068	0	32712	
7069	0	32728	
7070	0	32808	
7071	0	32860	
7072	0	33024	
7073	0	33034	
7074	0	32976	
7075	0	32932	
7076	0	32996	
7077	0	32812	
7078	0	32676	
7079	0	32621	
7080	0	32689	
7081	0	32732	
7082	0	32696	
7083	0	32592	
7084	0	32600	
7085	0	32517	
7086	0	32496	
7087	0	32676	
7088	0	32680	
7089	0	32812	
7090	0	32888	
7091	0	32904	
7092	0	33156	
7093	0	33110	
7094	0	32880	
7095	0	32884	
7096	0	32820	
7097	0	32692	
7098	0	32648	
7099	0	32760	
7100	0	32640	
7101	0	32784	
7102	0	32716	
7103	0	32724	
7104	0	32772	
7105	0	32648	
7106	0	32576	
7107	0	32592	
7108	0	32688	
7109	0	32799	
7110	0	32741	
7111	0	32928	
7112	0	32972	
7113	0	32948	
7114	0	32996	
7115	0	32968	
7116	0	32872	
7117	0	32832	
7118	0	32742	
7119	0	32628	
7120	0	32716	
7121	0	32736	
7122	0	32684	
7123	0	32784	
7124	0	32700	
7125	0	32652	
7126	0	32500	
7127	0	32593	
7128	0	32569	
7129	0	32688	
7130	0	32960	
7131	0	33028	
7132	0	33076	
7133	0	33040	
7134	0	32992	
7135	0	32961	
7136	0	32932	
7137	0	32808	
7138	0	32848	
7139	0	32764	
7140	0	32709	
7141	0	32730	
7142	0	32646	
7143	0	32625	
7144	0	32684	
7145	0	32564	
7146	0	32292	
7147	0	32380	
7148	0	32525	
7149	0	32832	
7150	0	32992	
7151	0	33037	
7152	0	33144	
7153	0	33180	
7154	0	32996	
7155	0	32800	
7156	0	32724	
7157	0	32728	
7158	0	32668	
7159	0	32704	
7160	0	32764	
7161	0	32748	
7162	0	32740	
7163	0	32776	
7164	0	32776	
7165	0	32660	
7166	0	32580	
7167	0	32620	
7168	0	32652	
7169	0	32781	
7170	0	32716	
7171	0	32748	
7172	0	32972	
7173	0	33004	
7174	0	32948	
7175	0	33052	
7176	0	32944	
7177	0	32840	
7178	0	32896	
7179	0	32836	
7180	0	32732	
7181	0	32656	
7182	0	32628	
7183	0	32668	
7184	0	32672	
7185	0	32548	
7186	0	32582	
7187	0	32647	
7188	0	32720	
7189	0	32812	
7190	0	32908	
7191	0	32788	
7192	0	33009	
7193	0	33076	
7194	0	32996	
7195	0	32984	
7196	0	32868	
7197	0	32821	
7198	0	32740	
7199	0	32696	
7200	0	32652	
7201	0	32620	
7202	0	32636	
7203	0	32660	
7204	0	32735	
7205	0	32614	
7206	0	32518	
7207	0	32524	
7208	0	32704	
7209	0	32852	
7210	0	32800	
7211	0	32844	
7212	0	32908	
7213	0	33109	
7214	0	33188	
7215	0	33180	
7216	0	33108	
7217	0	32964	
7218	0	32716	
7219	0	32568	
7220	0	32560	
7221	0	32684	
7222	0	32724	
7223	0	32604	
7224	0	32521	
7225	0	32460	
7226	0	32454	
7227	0	32636	
7228	0	32748	
7229	0	32836	
7230	0	32808	
7231	0	32828	
7232	0	32941	
7233	0	33007	
7234	0	33076	
7235	0	33188	
7236	0	32940	
7237	0	32960	
7238	0	32872	
7239	0	32764	
7240	0	32640	
7241	0	32612	
7242	0	32604	
7243	0	32672	
7244	0	32784	
7245	0	32576	
7246	0	32548	
7247	0	32612	
7248	0	32736	
7249	0	32792	
7250	0	32744	
7251	0	32768	
7252	0	32903	
7253	0	32937	
7254	0	32976	
7255	0	33080	
7256	0	32992	
7257	0	32904	
7258	0	32804	
7259	0	32740	
7260	0	32680	
7261	0	32762	
7262	0	32704	
7263	0	32740	
7264	0	32769	
7265	0	32588	
7266	0	32492	
7267	0	32526	
7268	0	32702	
7269	0	32736	
7270	0	32832	
7271	0	32884	
7272	0	33068	
7273	0	33000	
7274	0	32992	
7275	0	33008	
7276	0	32940	
7277	0	32872	
7278	0	32741	
7279	0	32748	
7280	0	32672	
7281	0	32716	
7282	0	32676	
7283	0	32704	
7284	0	32705	
7285	0	32608	
7286	0	32494	
7287	0	32604	
7288	0	32686	
7289	0	32676	
7290	0	32620	
7291	0	32720	
7292	0	32932	
7293	0	33028	
7294	0	33055	
7295	0	33252	
7296	0	33152	
7297	0	33141	
7298	0	32996	
7299	0	32856	
7300	0	32660	
7301	0	32713	
7302	0	32760	
7303	0	32656	
7304	0	32620	
7305	0	32516	
7306	0	32474	
7307	0	32464	
7308	0	32540	
7309	0	32632	
7310	0	32629	
7311	0	32852	
7312	0	33032	
7313	0	33068	
7314	0	33036	
7315	0	32957	
7316	0	32832	
7317	0	32832	
7318	0	32800	
7319	0	32770	
7320	0	32728	
7321	0	32714	
7322	0	32612	
7323	0	32720	
7324	0	32676	
7325	0	32628	
7326	0	32516	
7327	0	32536	
7328	0	32636	
7329	0	32788	
7330	0	32848	
7331	0	32956	
7332	0	33140	
7333	0	33112	
7334	0	33116	
7335	0	32996	
7336	0	32852	
7337	0	32832	
7338	0	32692	
7339	0	32664	
7340	0	32768	
7341	0	32868	
7342	0	32836	
7343	0	32632	
7344	0	32533	
7345	0	32388	
7346	0	32456	
7347	0	32608	
7348	0	32758	
7349	0	32756	
7350	0	32637	
7351	0	32848	
7352	0	33022	
7353	0	33064	
7354	0	33068	
7355	0	33033	
7356	0	32948	
7357	0	32792	
7358	0	32836	
7359	0	32748	
7360	0	32734	
7361	0	32676	
7362	0	32716	
7363	0	32637	
7364	0	32728	
7365	0	32663	
7366	0	32573	
7367	0	32640	
7368	0	32717	
7369	0	32704	
7370	0	32793	
7371	0	32876	
7372	0	32997	
7373	0	33000	
7374	0	33024	
7375	0	32952	
7376	0	32876	
7377	0	32860	
7378	0	32884	
7379	0	32789	
7380	0	32749	
7381	0	32790	
7382	0	32668	
7383	0	32712	
7384	0	32665	
7385	0	32504	
7386	0	32589	
7387	0	32584	
7388	0	32644	
7389	0	32694	
7390	0	32692	
7391	0	32776	
7392	0	32950	
7393	0	32968	
7394	0	32932	
7395	0	33048	
7396	0	33032	
7397	0	32952	
7398	0	32762	
7399	0	32752	
7400	0	32988	
7401	0	33016	
7402	0	32864	
7403	0	32708	
7404	0	32794	
7405	0	32600	
7406	0	32480	
7407	0	32504	
7408	0	32680	
7409	0	32695	
7410	0	32542	
7411	0	32729	
7412	0	32848	
7413	0	32852	
7414	0	32912	
7415	0	32868	
7416	0	32896	
7417	0	32892	
7418	0	32772	
7419	0	32760	
7420	0	32960	
7421	0	32924	
7422	0	32822	
7423	0	32684	
7424	0	32660	
7425	0	32540	
7426	0	32508	
7427	0	32600	
7428	0	32620	
7429	0	32662	
7430	0	32708	
7431	0	32860	
7432	0	33030	
7433	0	33016	
7434	0	33017	
7435	0	32952	
7436	0	32916	
7437	0	32860	
7438	0	32816	
7439	0	32780	
7440	0	32688	
7441	0	32728	
7442	0	32688	
7443	0	32588	
7444	0	32645	
7445	0	32540	
7446	0	32604	
7447	0	32916	
7448	0	32807	
7449	0	32788	
7450	0	32708	
7451	0	32836	
7452	0	32856	
7453	0	32829	
7454	0	32904	
7455	0	33056	
7456	0	32924	
7457	0	32872	
7458	0	32829	
7459	0	32853	
7460	0	32776	
7461	0	32724	
7462	0	32576	
7463	0	32568	
7464	0	32694	
7465	0	32544	
7466	0	32620	
7467	0	32604	
7468	0	32740	
7469	0	32804	
7470	0	32877	
7471	0	32973	
7472	0	33052	
7473	0	33020	
7474	0	32996	
7475	0	32988	
7476	0	32828	
7477	0	32804	
7478	0	32780	
7479	0	32752	
7480	0	32796	
7481	0	32656	
7482	0	32584	
7483	0	32656	
7484	0	32812	
7485	0	32576	
7486	0	32436	
7487	0	32468	
7488	0	32560	
7489	0	32741	
7490	0	32812	
7491	0	32964	
7492	0	33164	
7493	0	33228	
7494	0	33004	
7495	0	32932	
7496	0	32830	
7497	0	32740	
7498	0	32749	
7499	0	32724	
7500	0	32668	
7501	0	32584	
7502	0	32553	
7503	0	32592	
7504	0	32660	
7505	0	32580	
7506	0	32718	
7507	0	32792	
7508	0	32920	
7509	0	32928	
7510	0	32784	
7511	0	32936	
7512	0	33362	
7513	0	33341	
7514	0	33192	
7515	0	33060	
7516	0	32852	
7517	0	32604	
7518	0	32540	
7519	0	32617	
7520	0	32676	
7521	0	32620	
7522	0	32604	
7523	0	32548	
7524	0	32564	
7525	0	32532	
7526	0	32604	
7527	0	32632	
7528	0	32548	
7529	0	32696	
7530	0	32772	
7531	0	32988	
7532	0	33092	
7533	0	33094	
7534	0	33053	
7535	0	32992	
7536	0	32788	
7537	0	32636	
7538	0	32644	
7539	0	32744	
7540	0	32765	
7541	0	32724	
7542	0	32736	
7543	0	32676	
7544	0	32720	
7545	0	32576	
7546	0	32597	
7547	0	32688	
7548	0	32744	
7549	0	32708	
7550	0	32728	
7551	0	32920	
7552	0	33036	
7553	0	33014	
7554	0	33004	
7555	0	33020	
7556	0	32896	
7557	0	32804	
7558	0	32828	
7559	0	32804	
7560	0	32706	
7561	0	32656	
7562	0	32596	
7563	0	32589	
7564	0	32644	
7565	0	32568	
7566	0	32564	
7567	0	32702	
7568	0	32641	
7569	0	32792	
7570	0	32721	
7571	0	32932	
7572	0	33124	
7573	0	33064	
7574	0	33100	
7575	0	33132	
7576	0	33108	
7577	0	32840	
7578	0	32592	
7579	0	32656	
7580	0	32681	
7581	0	32648	
7582	0	32640	
7583	0	32724	
7584	0	32744	
7585	0	32521	
7586	0	32664	
7587	0	32640	
7588	0	32660	
7589	0	32728	
7590	0	32678	
7591	0	32848	
7592	0	33032	
7593	0	33020	
7594	0	33029	
7595	0	32928	
7596	0	32812	
7597	0	32728	
7598	0	32740	
7599	0	32740	
7600	0	32708	
7601	0	32804	
7602	0	32672	
7603	0	32836	
7604	0	33060	
7605	0	32944	
7606	0	32708	
7607	0	32592	
7608	0	32648	
7609	0	32621	
7610	0	32636	
7611	0	32776	
7612	0	32816	
7613	0	32988	
7614	0	32965	
7615	0	33048	
7616	0	32928	
7617	0	32868	
7618	0	32749	
7619	0	32807	
7620	0	32705	
7621	0	32652	
7622	0	32608	
7623	0	32660	
7624	0	32688	
7625	0	32540	
7626	0	32520	
7627	0	32628	
7628	0	32738	
7629	0	32768	
7630	0	32720	
7631	0	32876	
7632	0	32984	
7633	0	33060	
7634	0	33144	
7635	0	33008	
7636	0	32968	
7637	0	32878	
7638	0	32832	
7639	0	32780	
7640	0	32748	
7641	0	32696	
7642	0	32684	
7643	0	32600	
7644	0	32544	
7645	0	32552	
7646	0	32520	
7647	0	32692	
7648	0	32781	
7649	0	32774	
7650	0	32736	
7651	0	32932	
7652	0	32984	
7653	0	32996	
7654	0	32961	
7655	0	32888	
7656	0	32860	
7657	0	32816	
7658	0	32736	
7659	0	32712	
7660	0	32808	
7661	0	32800	
7662	0	32661	
7663	0	32584	
7664	0	32740	
7665	0	32632	
7666	0	32632	
7667	0	32632	
7668	0	32665	
7669	0	32816	
7670	0	32812	
7671	0	32888	
7672	0	32988	
7673	0	32988	
7674	0	32996	
7675	0	32956	
7676	0	32876	
7677	0	32792	
7678	0	32772	
7679	0	32748	
7680	0	32656	
7681	0	32548	
7682	0	32632	
7683	0	32808	
7684	0	33048	
7685	0	32904	
7686	0	32750	
7687	0	32660	
7688	0	32632	
7689	0	32592	
7690	0	32552	
7691	0	32762	
7692	0	32917	
7693	0	33016	
7694	0	33100	
7695	0	32798	
7696	0	32712	
7697	0	32804	
7698	0	32824	
7699	0	32916	
7700	0	32896	
7701	0	32736	
7702	0	32656	
7703	0	32552	
7704	0	32516	
7705	0	32452	
7706	0	32544	
7707	0	32580	
7708	0	32692	
7709	0	32764	
7710	0	32808	
7711	0	32988	
7712	0	32952	
7713	0	33049	
7714	0	33072	
7715	0	33208	
7716	0	33148	
7717	0	32922	
7718	0	32756	
7719	0	32644	
7720	0	32560	
7721	0	32516	
7722	0	32568	
7723	0	32612	
7724	0	32756	
7725	0	32592	
7726	0	32660	
7727	0	32632	
7728	0	32726	
7729	0	32740	
7730	0	32608	
7731	0	32912	
7732	0	33004	
7733	0	33068	
7734	0	33068	
7735	0	32984	
7736	0	32860	
7737	0	32804	
7738	0	32704	
7739	0	32728	
7740	0	32768	
7741	0	32640	
7742	0	32716	
7743	0	32662	
7744	0	32756	
7745	0	32624	
7746	0	32586	
7747	0	32624	
7748	0	32704	
7749	0	32804	
7750	0	32812	
7751	0	32961	
7752	0	33040	
7753	0	33016	
7754	0	33024	
7755	0	33036	
7756	0	32880	
7757	0	32768	
7758	0	32708	
7759	0	32708	
7760	0	32709	
7761	0	32628	
7762	0	32668	
7763	0	32596	
7764	0	32640	
7765	0	32620	
7766	0	32553	
7767	0	32648	
7768	0	32656	
7769	0	32765	
7770	0	32800	
7771	0	33080	
7772	0	33012	
7773	0	32940	
7774	0	32900	
7775	0	32884	
7776	0	32800	
7777	0	32777	
7778	0	32932	
7779	0	32876	
7780	0	32956	
7781	0	32880	
7782	0	32869	
7783	0	32812	
7784	0	32536	
7785	0	32380	
7786	0	32348	
7787	0	32488	
7788	0	32596	
7789	0	32709	
7790	0	32804	
7791	0	32984	
7792	0	32912	
7793	0	32936	
7794	0	33028	
7795	0	32988	
7796	0	32921	
7797	0	32876	
7798	0	32884	
7799	0	32984	
7800	0	32856	
7801	0	32744	
7802	0	32596	
7803	0	32596	
7804	0	32589	
7805	0	32516	
7806	0	32560	
7807	0	32564	
7808	0	32716	
7809	0	32828	
7810	0	32692	
7811	0	33084	
7812	0	33152	
7813	0	33004	
7814	0	32889	
7815	0	32748	
7816	0	32740	
7817	0	32768	
7818	0	32740	
7819	0	32748	
7820	0	32764	
7821	0	32788	
7822	0	32616	
7823	0	32612	
7824	0	32669	
7825	0	32613	
7826	0	32768	
7827	0	32708	
7828	0	32772	
7829	0	32808	
7830	0	32720	
7831	0	33040	
7832	0	33076	
7833	0	32920	
7834	0	33052	
7835	0	32944	
7836	0	32824	
7837	0	32752	
7838	0	32732	
7839	0	32794	
7840	0	32760	
7841	0	32704	
7842	0	32704	
7843	0	32632	
7844	0	32676	
7845	0	32576	
7846	0	32564	
7847	0	32688	
7848	0	32693	
7849	0	32751	
7850	0	32700	
7851	0	32976	
7852	0	32964	
7853	0	32996	
7854	0	33076	
7855	0	32996	
7856	0	32900	
7857	0	32824	
7858	0	32813	
7859	0	32764	
7860	0	32752	
7861	0	32584	
7862	0	32569	
7863	0	32669	
7864	0	32724	
7865	0	32629	
7866	0	32608	
7867	0	32660	
7868	0	32752	
7869	0	32816	
7870	0	32868	
7871	0	32908	
7872	0	33000	
7873	0	33006	
7874	0	33056	
7875	0	32900	
7876	0	32872	
7877	0	32860	
7878	0	32761	
7879	0	32628	
7880	0	32616	
7881	0	32584	
7882	0	32588	
7883	0	32660	
7884	0	32652	
7885	0	32556	
7886	0	32636	
7887	0	32760	
7888	0	32808	
7889	0	32712	
7890	0	32612	
7891	0	32784	
7892	0	33040	
7893	0	33092	
7894	0	33069	
7895	0	32916	
7896	0	32884	
7897	0	32968	
7898	0	33184	
7899	0	33080	
7900	0	32844	
7901	0	32740	
7902	0	32640	
7903	0	32612	
7904	0	32428	
7905	0	32308	
7906	0	32428	
7907	0	32500	
7908	0	32676	
7909	0	32840	
7910	0	32800	
7911	0	32816	
7912	0	32872	
7913	0	32956	
7914	0	32972	
7915	0	32988	
7916	0	32856	
7917	0	32884	
7918	0	32820	
7919	0	32864	
7920	0	32924	
7921	0	32676	
7922	0	32548	
7923	0	32588	
7924	0	32708	
7925	0	32740	
7926	0	32780	
7927	0	32633	
7928	0	32636	
7929	0	32690	
7930	0	32704	
7931	0	32896	
7932	0	33004	
7933	0	32988	
7934	0	33180	
7935	0	33108	
7936	0	32968	
7937	0	32848	
7938	0	32756	
7939	0	32704	
7940	0	32668	
7941	0	32589	
7942	0	32644	
7943	0	32640	
7944	0	32645	
7945	0	32556	
7946	0	32580	
7947	0	32596	
7948	0	32704	
7949	0	32812	
7950	0	32860	
7951	0	32944	
7952	0	33064	
7953	0	33012	
7954	0	33060	
7955	0	32872	
7956	0	32826	
7957	0	32764	
7958	0	32696	
7959	0	32712	
7960	0	32672	
7961	0	32653	
7962	0	32686	
7963	0	32624	
7964	0	32708	
7965	0	32604	
7966	0	32704	
7967	0	32884	
7968	0	32948	
7969	0	32940	
7970	0	32988	
7971	0	32924	
7972	0	32780	
7973	0	32808	
7974	0	33024	
7975	0	33076	
7976	0	32780	
7977	0	32716	
7978	0	32772	
7979	0	32822	
7980	0	32736	
7981	0	32652	
7982	0	32620	
7983	0	32732	
7984	0	32640	
7985	0	32510	
7986	0	32516	
7987	0	32640	
7988	0	32721	
7989	0	32772	
7990	0	32736	
7991	0	32872	
7992	0	32877	
7993	0	32868	
7994	0	33012	
7995	0	32873	
7996	0	32888	
7997	0	32873	
7998	0	32956	
7999	0	32980	
8000	0	32876	
8001	0	32712	
8002	0	32660	
8003	0	32732	
8004	0	32652	
8005	0	32568	
8006	0	32588	
8007	0	32532	
8008	0	32712	
8009	0	32712	
8010	0	32804	
8011	0	32996	
8012	0	33044	
8013	0	32968	
8014	0	33060	
8015	0	32916	
8016	0	32852	
8017	0	32681	
8018	0	32644	
8019	0	32580	
8020	0	32726	
8021	0	32599	
8022	0	32668	
8023	0	32720	
8024	0	32732	
8025	0	32534	
8026	0	32654	
8027	0	32644	
8028	0	32760	
8029	0	32836	
8030	0	32856	
8031	0	32968	
8032	0	32976	
8033	0	32921	
8034	0	33028	
8035	0	32876	
8036	0	32764	
8037	0	32790	
8038	0	32796	
8039	0	32780	
8040	0	32860	
8041	0	32848	
8042	0	32724	
8043	0	32668	
8044	0	32684	
8045	0	32593	
8046	0	32612	
8047	0	32560	
8048	0	32640	
8049	0	32748	
8050	0	32960	
8051	0	32912	
8052	0	32908	
8053	0	32952	
8054	0	32988	
8055	0	33018	
8056	0	32952	
8057	0	32856	
8058	0	32736	
8059	0	32672	
8060	0	32692	
8061	0	32620	
8062	0	32578	
8063	0	32552	
8064	0	32568	
8065	0	32485	
8066	0	32654	
8067	0	32712	
8068	0	32796	
8069	0	32744	
8070	0	32788	
8071	0	33008	
8072	0	33064	
8073	0	32990	
8074	0	33028	
8075	0	32904	
8076	0	32812	
8077	0	32708	
8078	0	32612	
8079	0	32612	
8080	0	32644	
8081	0	32684	
8082	0	32660	
8083	0	32738	
8084	0	32961	
8085	0	32812	
8086	0	32800	
8087	0	32685	
8088	0	32704	
8089	0	32676	
8090	0	32764	
8091	0	32948	
8092	0	33128	
8093	0	33164	
8094	0	33108	
8095	0	32774	
8096	0	32832	
8097	0	32708	
8098	0	32718	
8099	0	32632	
8100	0	32644	
8101	0	32624	
8102	0	32600	
8103	0	32576	
8104	0	32572	
8105	0	32568	
8106	0	32654	
8107	0	32652	
8108	0	32736	
8109	0	32772	
8110	0	32844	
8111	0	33024	
8112	0	33004	
8113	0	32964	
8114	0	33024	
8115	0	32948	
8116	0	32880	
8117	0	32836	
8118	0	32716	
8119	0	32632	
8120	0	32641	
8121	0	32652	
8122	0	32612	
8123	0	32696	
8124	0	32784	
8125	0	32740	
8126	0	32824	
8127	0	32760	
8128	0	32740	
8129	0	32660	
8130	0	32652	
8131	0	32794	
8132	0	32836	
8133	0	32896	
8134	0	33084	
8135	0	33104	
8136	0	33132	
8137	0	32974	
8138	0	32668	
8139	0	32568	
8140	0	32536	
8141	0	32476	
8142	0	32524	
8143	0	32740	
8144	0	32620	
8145	0	32580	
8146	0	32704	
8147	0	32624	
8148	0	32792	
8149	0	32856	
8150	0	32928	
8151	0	33060	
8152	0	33080	
8153	0	32962	
8154	0	32996	
8155	0	32892	
8156	0	32873	
8157	0	32788	
8158	0	32661	
8159	0	32593	
8160	0	32661	
8161	0	32644	
8162	0	32532	
8163	0	32641	
8164	0	32852	
8165	0	32872	
8166	0	32852	
8167	0	32705	
8168	0	32720	
8169	0	32944	
8170	0	32936	
8171	0	33032	
8172	0	33020	
8173	0	32853	
8174	0	32784	
8175	0	32652	
8176	0	32644	
8177	0	32728	
8178	0	32712	
8179	0	32712	
8180	0	32702	
8181	0	32726	
8182	0	32740	
8183	0	32696	
8184	0	32668	
8185	0	32564	
8186	0	32604	
8187	0	32628	
8188	0	32712	
8189	0	32696	
8190	0	32688	
8191	0	32920	
8192	0	33020	
8193	0	32916	
8194	0	33120	
8195	0	33048	
8196	0	32944	
8197	0	33052	
8198	0	33104	
8199	0	33224	
8200	0	32870	
8201	0	32636	
8202	0	32384	
8203	0	32316	
8204	0	32310	
8205	0	32302	
8206	0	32468	
8207	0	32636	
8208	0	32732	
8209	0	32792	
8210	0	32861	
8211	0	32924	
8212	0	33001	
8213	0	32976	
8214	0	33088	
8215	0	32982	
8216	0	32984	
8217	0	32852	
8218	0	32864	
8219	0	32725	
8220	0	32692	
8221	0	32590	
8222	0	32648	
8223	0	32657	
8224	0	32512	
8225	0	32540	
8226	0	32640	
8227	0	32628	
8228	0	32764	
8229	0	32800	
8230	0	32916	
8231	0	33092	
8232	0	33137	
8233	0	32952	
8234	0	33000	
8235	0	32916	
8236	0	32824	
8237	0	32756	
8238	0	32716	
8239	0	32656	
8240	0	32636	
8241	0	32645	
8242	0	32688	
8243	0	32692	
8244	0	32652	
8245	0	32598	
8246	0	32596	
8247	0	32644	
8248	0	32768	
8249	0	32862	
8250	0	32868	
8251	0	32936	
8252	0	33008	
8253	0	32992	
8254	0	32965	
8255	0	32820	
8256	0	32804	
8257	0	32685	
8258	0	32652	
8259	0	32809	
8260	0	32864	
8261	0	32812	
8262	0	32708	
8263	0	32780	
8264	0	32716	
8265	0	32648	
8266	0	32576	
8267	0	32428	
8268	0	32548	
8269	0	32724	
8270	0	33004	
8271	0	33232	
8272	0	33184	
8273	0	33100	
8274	0	32928	
8275	0	32868	
8276	0	32832	
8277	0	32784	
8278	0	32748	
8279	0	32628	
8280	0	32612	
8281	0	32584	
8282	0	32588	
8283	0	32736	
8284	0	32524	
8285	0	32404	
8286	0	32560	
8287	0	32660	
8288	0	32742	
8289	0	32884	
8290	0	32932	
8291	0	33116	
8292	0	33108	
8293	0	33140	
8294	0	33064	
8295	0	32836	
8296	0	32813	
8297	0	32776	
8298	0	32708	
8299	0	32652	
8300	0	32616	
8301	0	32632	
8302	0	32632	
8303	0	32708	
8304	0	32588	
8305	0	32640	
8306	0	32672	
8307	0	32633	
8308	0	32775	
8309	0	32820	
8310	0	32900	
8311	0	32996	
8312	0	33016	
8313	0	33000	
8314	0	33022	
8315	0	32900	
8316	0	32924	
8317	0	32800	
8318	0	32684	
8319	0	32652	
8320	0	32708	
8321	0	32706	
8322	0	32672	
8323	0	32668	
8324	0	32500	
8325	0	32606	
8326	0	32732	
8327	0	32704	
8328	0	32741	
8329	0	32800	
8330	0	32852	
8331	0	32968	
8332	0	32986	
8333	0	32960	
8334	0	33004	
8335	0	32880	
8336	0	32832	
8337	0	32704	
8338	0	32744	
8339	0	32708	
8340	0	32660	
8341	0	32676	
8342	0	32646	
8343	0	32688	
8344	0	32588	
8345	0	32686	
8346	0	32740	
8347	0	32734	
8348	0	32828	
8349	0	32736	
8350	0	32948	
8351	0	33008	
8352	0	32988	
8353	0	32972	
8354	0	32964	
8355	0	32844	
8356	0	32813	
8357	0	32744	
8358	0	32748	
8359	0	32676	
8360	0	32720	
8361	0	32560	
8362	0	32572	
8363	0	32588	
8364	0	32636	
8365	0	32788	
8366	0	32876	
8367	0	32724	
8368	0	32729	
8369	0	32712	
8370	0	32664	
8371	0	32856	
8372	0	32828	
8373	0	32940	
8374	0	33068	
8375	0	33232	
8376	0	33184	
8377	0	33024	
8378	0	32802	
8379	0	32660	
8380	0	32656	
8381	0	32664	
8382	0	32468	
8383	0	32520	
8384	0	32460	
8385	0	32504	
8386	0	32676	
8387	0	32680	
8388	0	32820	
8389	0	32782	
8390	0	32972	
8391	0	33048	
8392	0	33088	
8393	0	33072	
8394	0	32972	
8395	0	32716	
8396	0	32605	
8397	0	32628	
8398	0	32692	
8399	0	32728	
8400	0	32684	
8401	0	32704	
8402	0	32744	
8403	0	32812	
8404	0	32628	
8405	0	32560	
8406	0	32700	
8407	0	32738	
8408	0	32780	
8409	0	32784	
8410	0	32984	
8411	0	33056	
8412	0	33052	
8413	0	32976	
8414	0	32961	
8415	0	32912	
8416	0	32788	
8417	0	32772	
8418	0	32788	
8419	0	32724	
8420	0	32668	
8421	0	32708	
8422	0	32608	
8423	0	32700	
8424	0	32504	
8425	0	32504	
8426	0	32468	
8427	0	32632	
8428	0	32740	
8429	0	32740	
8430	0	33052	
8431	0	33172	
8432	0	33184	
8433	0	33164	
8434	0	33080	
8435	0	32872	
8436	0	32804	
8437	0	32716	
8438	0	32672	
8439	0	32617	
8440	0	32644	
8441	0	32588	
8442	0	32668	
8443	0	32676	
8444	0	32612	
8445	0	32568	
8446	0	32724	
8447	0	32712	
8448	0	32816	
8449	0	32764	
8450	0	32872	
8451	0	33004	
8452	0	33132	
8453	0	33072	
8454	0	32972	
8455	0	32860	
8456	0	32748	
8457	0	32560	
8458	0	32716	
8459	0	32840	
8460	0	32764	
8461	0	32800	
8462	0	32724	
8463	0	32801	
8464	0	32664	
8465	0	32581	
8466	0	32436	
8467	0	32508	
8468	0	32652	
8469	0	32744	
8470	0	32960	
8471	0	32976	
8472	0	32896	
8473	0	32908	
8474	0	33028	
8475	0	33012	
8476	0	33068	
8477	0	33104	
8478	0	32840	
8479	0	32808	
8480	0	32616	
8481	0	32550	
8482	0	32552	
8483	0	32564	
8484	0	32532	
8485	0	32520	
8486	0	32588	
8487	0	32592	
8488	0	32764	
8489	0	32881	
8490	0	33156	
8491	0	32968	
8492	0	32992	
8493	0	33024	
8494	0	32984	
8495	0	32784	
8496	0	32752	
8497	0	32752	
8498	0	32656	
8499	0	32744	
8500	0	32768	
8501	0	32780	
8502	0	32652	
8503	0	32612	
8504	0	32548	
8505	0	32656	
8506	0	32616	
8507	0	32716	
8508	0	32756	
8509	0	32780	
8510	0	32952	
8511	0	33040	
8512	0	33012	
8513	0	33044	
8514	0	32940	
8515	0	32848	
8516	0	32756	
8517	0	32688	
8518	0	32724	
8519	0	32708	
8520	0	32756	
8521	0	32724	
8522	0	32708	
8523	0	32764	
8524	0	32676	
8525	0	32670	
8526	0	32744	
8527	0	32663	
8528	0	32836	
8529	0	32776	
8530	0	32836	
8531	0	32916	
8532	0	32920	
8533	0	32958	
8534	0	32900	
8535	0	32780	
8536	0	32780	
8537	0	32736	
8538	0	32708	
8539	0	32744	
8540	0	32684	
8541	0	32636	
8542	0	32704	
8543	0	32728	
8544	0	32654	
8545	0	32632	
8546	0	32653	
8547	0	32704	
8548	0	32796	
8549	0	32756	
8550	0	32926	
8551	0	32980	
8552	0	33004	
8553	0	32980	
8554	0	32948	
8555	0	32896	
8556	0	32808	
8557	0	32744	
8558	0	32748	
8559	0	32772	
8560	0	32816	
8561	0	32668	
8562	0	32608	
8563	0	32504	
8564	0	32420	
8565	0	32448	
8566	0	32636	
8567	0	32776	
8568	0	32886	
8569	0	32678	
8570	0	33000	
8571	0	33268	
8572	0	33116	
8573	0	33148	
8574	0	33120	
8575	0	33004	
8576	0	32832	
8577	0	32704	
8578	0	32636	
8579	0	32596	
8580	0	32616	
8581	0	32661	
8582	0	32700	
8583	0	32708	
8584	0	32504	
8585	0	32520	
8586	0	32588	
8587	0	32672	
8588	0	32705	
8589	0	32596	
8590	0	32932	
8591	0	33108	
8592	0	33116	
8593	0	33116	
8594	0	33012	
8595	0	33016	
8596	0	32932	
8597	0	32756	
8598	0	32720	
8599	0	32732	
8600	0	32688	
8601	0	32648	
8602	0	32556	
8603	0	32644	
8604	0	32524	
8605	0	32629	
8606	0	32636	
8607	0	32680	
8608	0	32724	
8609	0	32680	
8610	0	32848	
8611	0	33008	
8612	0	33004	
8613	0	33148	
