# OpenSignals Text File Format. Version 1
# {"00:07:80:4D:2E:9E": {"position": 0, "device": "biosignalsplux", "device name": "00:07:80:4D:2E:9E", "device connection": "BTH00:07:80:4D:2E:9E", "sampling rate": 1000, "resolution": [16], "firmware version": 774, "comments": "", "keywords": "", "mode": 0, "sync interval": 2, "date": "2020-7-25", "time": "19:36:39.105", "channels": [1], "sensor": ["EMG"], "label": ["CH1"], "column": ["nSeq", "DI", "CH1"], "special": [{}], "digital IO": [0, 1]}}
# EndOfHeader
0	0	32696	
1	0	32732	
2	0	32640	
3	0	32652	
4	0	32700	
5	0	32728	
6	0	32718	
7	0	32716	
8	0	32864	
9	0	33032	
10	0	32928	
11	0	33057	
12	0	32936	
13	0	32836	
14	0	32744	
15	0	32732	
16	0	32702	
17	0	32804	
18	0	32768	
19	0	32654	
20	0	32676	
21	0	32644	
22	0	32616	
23	0	32748	
24	0	32756	
25	0	32880	
26	0	32800	
27	0	32580	
28	0	32768	
29	0	32924	
30	0	32984	
31	0	33124	
32	0	33088	
33	0	32976	
34	0	32900	
35	0	32972	
36	0	32708	
37	0	32492	
38	0	32453	
39	0	32476	
40	0	32536	
41	0	32784	
42	0	32644	
43	0	32581	
44	0	32604	
45	0	32620	
46	0	32776	
47	0	32781	
48	0	32960	
49	0	32924	
50	0	32854	
51	0	32960	
52	0	32900	
53	0	32800	
54	0	32884	
55	0	32636	
56	0	32620	
57	0	32772	
58	0	32960	
59	0	33157	
60	0	33100	
61	0	33008	
62	0	32768	
63	0	32680	
64	0	32640	
65	0	32716	
66	0	32720	
67	0	32652	
68	0	32800	
69	0	32808	
70	0	32700	
71	0	32900	
72	0	32844	
73	0	32792	
74	0	32760	
75	0	32760	
76	0	32708	
77	0	32616	
78	0	32640	
79	0	32734	
80	0	32732	
81	0	32824	
82	0	32736	
83	0	32748	
84	0	32728	
85	0	32640	
86	0	32685	
87	0	32598	
88	0	32944	
89	0	33060	
90	0	33100	
91	0	33112	
92	0	32970	
93	0	32860	
94	0	32736	
95	0	32688	
96	0	32664	
97	0	32676	
98	0	32761	
99	0	32672	
100	0	32764	
101	0	32660	
102	0	32588	
103	0	32816	
104	0	32804	
105	0	32820	
106	0	32794	
107	0	32660	
108	0	32900	
109	0	32885	
110	0	32852	
111	0	32932	
112	0	32756	
113	0	32736	
114	0	32800	
115	0	32754	
116	0	32748	
117	0	32856	
118	0	32928	
119	0	32848	
120	0	32620	
121	0	32621	
122	0	32512	
123	0	32556	
124	0	32612	
125	0	32776	
126	0	32840	
127	0	32816	
128	0	32988	
129	0	32900	
130	0	32876	
131	0	33020	
132	0	32834	
133	0	32716	
134	0	32688	
135	0	32632	
136	0	32708	
137	0	32920	
138	0	33017	
139	0	32932	
140	0	33096	
141	0	32880	
142	0	32400	
143	0	32352	
144	0	32428	
145	0	32636	
146	0	32716	
147	0	32870	
148	0	33108	
149	0	33173	
150	0	32937	
151	0	32920	
152	0	32845	
153	0	32884	
154	0	32848	
155	0	32832	
156	0	32736	
157	0	32592	
158	0	32488	
159	0	32536	
160	0	32632	
161	0	32709	
162	0	32676	
163	0	32796	
164	0	32856	
165	0	32829	
166	0	32661	
167	0	32625	
168	0	32978	
169	0	33120	
170	0	33020	
171	0	33008	
172	0	32820	
173	0	32732	
174	0	32628	
175	0	32748	
176	0	32824	
177	0	32672	
178	0	32528	
179	0	32644	
180	0	32636	
181	0	32792	
182	0	32688	
183	0	32724	
184	0	32712	
185	0	32828	
186	0	32916	
187	0	32628	
188	0	32801	
189	0	32788	
190	0	32740	
191	0	32864	
192	0	32844	
193	0	32868	
194	0	32808	
195	0	32856	
196	0	32800	
197	0	32844	
198	0	32800	
199	0	32820	
200	0	32860	
201	0	32786	
202	0	32680	
203	0	32592	
204	0	32644	
205	0	32672	
206	0	32664	
207	0	32664	
208	0	32792	
209	0	32940	
210	0	32964	
211	0	33037	
212	0	32912	
213	0	32708	
214	0	32704	
215	0	32704	
216	0	32724	
217	0	32840	
218	0	32896	
219	0	32916	
220	0	32912	
221	0	32780	
222	0	32592	
223	0	32528	
224	0	32560	
225	0	32590	
226	0	32740	
227	0	32804	
228	0	33024	
229	0	32966	
230	0	32904	
231	0	32974	
232	0	32908	
233	0	32844	
234	0	32784	
235	0	32768	
236	0	32722	
237	0	32718	
238	0	32710	
239	0	32744	
240	0	32744	
241	0	32644	
242	0	32472	
243	0	32552	
244	0	32508	
245	0	32724	
246	0	32900	
247	0	32900	
248	0	32976	
249	0	33056	
250	0	33084	
251	0	33096	
252	0	32900	
253	0	32716	
254	0	32692	
255	0	32609	
256	0	32508	
257	0	32608	
258	0	32740	
259	0	32776	
260	0	32804	
261	0	32772	
262	0	32808	
263	0	32952	
264	0	32976	
265	0	32820	
266	0	32741	
267	0	32533	
268	0	32724	
269	0	32788	
270	0	32840	
271	0	32868	
272	0	32784	
273	0	32892	
274	0	32885	
275	0	32840	
276	0	32778	
277	0	32758	
278	0	32732	
279	0	32596	
280	0	32772	
281	0	32789	
282	0	32685	
283	0	32716	
284	0	32756	
285	0	32696	
286	0	32680	
287	0	32817	
288	0	32928	
289	0	32916	
290	0	32856	
291	0	32860	
292	0	32708	
293	0	32577	
294	0	32600	
295	0	32736	
296	0	32764	
297	0	32868	
298	0	32876	
299	0	32988	
300	0	32852	
301	0	32784	
302	0	32772	
303	0	32736	
304	0	32784	
305	0	32712	
306	0	32724	
307	0	32684	
308	0	32916	
309	0	32928	
310	0	32840	
311	0	33000	
312	0	32853	
313	0	32800	
314	0	32724	
315	0	32524	
316	0	32420	
317	0	32532	
318	0	32812	
319	0	33005	
320	0	33196	
321	0	32993	
322	0	32528	
323	0	32544	
324	0	32752	
325	0	32748	
326	0	32832	
327	0	32698	
328	0	32880	
329	0	32928	
330	0	32876	
331	0	32929	
332	0	32780	
333	0	32752	
334	0	32828	
335	0	32889	
336	0	32792	
337	0	32656	
338	0	32724	
339	0	32712	
340	0	32804	
341	0	32800	
342	0	32804	
343	0	32724	
344	0	32605	
345	0	32548	
346	0	32599	
347	0	32652	
348	0	32824	
349	0	32860	
350	0	32988	
351	0	33096	
352	0	32996	
353	0	32905	
354	0	32764	
355	0	32628	
356	0	32632	
357	0	32709	
358	0	32708	
359	0	32696	
360	0	32708	
361	0	32608	
362	0	32552	
363	0	32640	
364	0	32801	
365	0	32900	
366	0	32856	
367	0	32844	
368	0	32908	
369	0	32820	
370	0	32768	
371	0	32817	
372	0	32793	
373	0	32712	
374	0	32800	
375	0	32780	
376	0	32789	
377	0	32916	
378	0	32848	
379	0	32776	
380	0	32812	
381	0	32698	
382	0	32604	
383	0	32612	
384	0	32622	
385	0	32730	
386	0	32812	
387	0	32846	
388	0	32964	
389	0	32992	
390	0	32904	
391	0	33020	
392	0	32948	
393	0	32778	
394	0	32784	
395	0	32736	
396	0	32672	
397	0	32677	
398	0	32652	
399	0	32704	
400	0	32720	
401	0	32685	
402	0	32676	
403	0	32692	
404	0	32652	
405	0	32656	
406	0	32612	
407	0	32782	
408	0	32948	
409	0	33124	
410	0	32982	
411	0	32988	
412	0	33004	
413	0	33025	
414	0	32860	
415	0	32820	
416	0	32780	
417	0	32816	
418	0	32772	
419	0	32556	
420	0	32620	
421	0	32624	
422	0	32556	
423	0	32615	
424	0	32716	
425	0	32848	
426	0	32784	
427	0	32616	
428	0	32732	
429	0	32917	
430	0	32884	
431	0	32964	
432	0	32844	
433	0	32804	
434	0	32812	
435	0	32904	
436	0	32960	
437	0	32800	
438	0	32784	
439	0	32792	
440	0	32825	
441	0	32668	
442	0	32536	
443	0	32536	
444	0	32656	
445	0	32608	
446	0	32654	
447	0	32804	
448	0	32992	
449	0	32888	
450	0	32852	
451	0	33053	
452	0	32949	
453	0	32828	
454	0	32680	
455	0	32645	
456	0	32748	
457	0	32841	
458	0	32921	
459	0	32860	
460	0	32740	
461	0	32705	
462	0	32540	
463	0	32608	
464	0	32648	
465	0	32750	
466	0	32720	
467	0	32788	
468	0	33044	
469	0	32988	
470	0	32918	
471	0	32933	
472	0	32864	
473	0	32740	
474	0	32692	
475	0	32636	
476	0	32724	
477	0	32832	
478	0	32800	
479	0	32848	
480	0	33036	
481	0	32792	
482	0	32584	
483	0	32672	
484	0	32748	
485	0	32796	
486	0	32758	
487	0	32696	
488	0	32720	
489	0	32889	
490	0	32917	
491	0	32980	
492	0	32839	
493	0	32700	
494	0	32716	
495	0	32660	
496	0	32720	
497	0	32663	
498	0	32644	
499	0	32700	
500	0	32920	
501	0	32772	
502	0	32772	
503	0	32772	
504	0	32780	
505	0	32756	
506	0	32700	
507	0	32728	
508	0	32857	
509	0	32952	
510	0	32968	
511	0	32974	
512	0	32900	
513	0	33005	
514	0	32960	
515	0	32728	
516	0	32893	
517	0	32932	
518	0	32628	
519	0	32396	
520	0	32416	
521	0	32460	
522	0	32620	
523	0	32644	
524	0	32644	
525	0	32760	
526	0	32820	
527	0	32964	
528	0	33004	
529	0	33053	
530	0	32925	
531	0	32932	
532	0	32893	
533	0	32777	
534	0	32696	
535	0	32708	
536	0	32689	
537	0	32664	
538	0	32870	
539	0	32840	
540	0	32816	
541	0	32752	
542	0	32712	
543	0	32700	
544	0	32656	
545	0	32726	
546	0	32752	
547	0	32792	
548	0	32872	
549	0	32881	
550	0	32832	
551	0	32908	
552	0	32848	
553	0	32918	
554	0	32804	
555	0	32816	
556	0	32788	
557	0	32680	
558	0	32536	
559	0	32661	
560	0	32728	
561	0	32596	
562	0	32544	
563	0	32524	
564	0	32648	
565	0	32816	
566	0	32732	
567	0	32942	
568	0	33048	
569	0	33007	
570	0	32970	
571	0	33044	
572	0	32924	
573	0	32868	
574	0	32752	
575	0	32724	
576	0	32824	
577	0	32820	
578	0	32890	
579	0	32820	
580	0	32798	
581	0	32576	
582	0	32436	
583	0	32460	
584	0	32624	
585	0	32774	
586	0	32800	
587	0	32848	
588	0	32877	
589	0	32965	
590	0	33008	
591	0	32972	
592	0	32856	
593	0	32738	
594	0	32820	
595	0	32928	
596	0	32868	
597	0	32724	
598	0	32676	
599	0	32692	
600	0	32872	
601	0	32592	
602	0	32624	
603	0	32604	
604	0	32612	
605	0	32708	
606	0	32652	
607	0	32729	
608	0	32804	
609	0	33006	
610	0	33032	
611	0	33009	
612	0	33084	
613	0	33036	
614	0	32825	
615	0	32812	
616	0	32836	
617	0	32892	
618	0	32788	
619	0	32612	
620	0	32718	
621	0	32600	
622	0	32516	
623	0	32477	
624	0	32588	
625	0	32716	
626	0	32780	
627	0	32720	
628	0	32748	
629	0	32868	
630	0	32980	
631	0	33076	
632	0	32980	
633	0	32828	
634	0	32800	
635	0	32724	
636	0	32780	
637	0	32828	
638	0	32812	
639	0	32712	
640	0	32720	
641	0	32564	
642	0	32648	
643	0	32704	
644	0	32680	
645	0	32812	
646	0	32725	
647	0	32933	
648	0	33172	
649	0	33008	
650	0	32924	
651	0	32712	
652	0	32605	
653	0	32636	
654	0	32824	
655	0	32868	
656	0	32928	
657	0	32984	
658	0	32817	
659	0	32612	
660	0	32624	
661	0	32700	
662	0	32608	
663	0	32656	
664	0	32752	
665	0	32744	
666	0	32662	
667	0	32664	
668	0	32756	
669	0	32752	
670	0	32968	
671	0	32985	
672	0	32964	
673	0	32937	
674	0	32972	
675	0	32936	
676	0	32805	
677	0	32616	
678	0	32629	
679	0	32596	
680	0	32644	
681	0	32657	
682	0	32764	
683	0	32897	
684	0	33076	
685	0	33060	
686	0	32848	
687	0	32652	
688	0	32608	
689	0	32669	
690	0	32768	
691	0	32972	
692	0	32816	
693	0	32645	
694	0	32640	
695	0	32784	
696	0	32748	
697	0	32700	
698	0	32672	
699	0	32684	
700	0	32692	
701	0	32725	
702	0	32677	
703	0	32724	
704	0	32744	
705	0	32764	
706	0	32852	
707	0	32984	
708	0	33082	
709	0	32976	
710	0	32988	
711	0	32968	
712	0	32736	
713	0	32732	
714	0	32752	
715	0	32839	
716	0	32712	
717	0	32638	
718	0	32696	
719	0	32856	
720	0	32896	
721	0	32502	
722	0	32548	
723	0	32612	
724	0	32652	
725	0	32772	
726	0	32840	
727	0	32836	
728	0	32904	
729	0	32798	
730	0	32877	
731	0	32936	
732	0	32917	
733	0	32889	
734	0	32836	
735	0	32864	
736	0	32840	
737	0	32740	
738	0	32741	
739	0	32676	
740	0	32672	
741	0	32500	
742	0	32616	
743	0	32764	
744	0	32832	
745	0	32892	
746	0	32836	
747	0	32864	
748	0	32928	
749	0	32964	
750	0	32912	
751	0	32772	
752	0	32840	
753	0	32820	
754	0	32732	
755	0	32800	
756	0	32616	
757	0	32622	
758	0	32536	
759	0	32616	
760	0	32864	
761	0	32784	
762	0	32700	
763	0	32732	
764	0	32772	
765	0	32788	
766	0	32580	
767	0	32741	
768	0	32744	
769	0	32829	
770	0	32960	
771	0	33108	
772	0	32996	
773	0	32989	
774	0	32876	
775	0	32738	
776	0	32676	
777	0	32621	
778	0	32512	
779	0	32680	
780	0	32760	
781	0	32693	
782	0	32744	
783	0	32724	
784	0	32572	
785	0	32576	
786	0	32668	
787	0	33016	
788	0	33080	
789	0	33068	
790	0	33168	
791	0	33044	
792	0	32980	
793	0	32840	
794	0	32612	
795	0	32672	
796	0	32600	
797	0	32616	
798	0	32700	
799	0	32816	
800	0	32808	
801	0	32624	
802	0	32576	
803	0	32612	
804	0	32628	
805	0	32904	
806	0	32584	
807	0	32612	
808	0	32764	
809	0	32772	
810	0	32852	
811	0	32908	
812	0	32876	
813	0	32913	
814	0	32972	
815	0	32988	
816	0	32976	
817	0	32744	
818	0	32624	
819	0	32748	
820	0	32741	
821	0	32640	
822	0	32552	
823	0	32570	
824	0	32712	
825	0	32890	
826	0	32828	
827	0	33032	
828	0	33104	
829	0	33028	
830	0	33004	
831	0	32880	
832	0	32740	
833	0	32784	
834	0	32732	
835	0	32704	
836	0	32748	
837	0	32748	
838	0	32864	
839	0	32900	
840	0	32905	
841	0	32664	
842	0	32508	
843	0	32492	
844	0	32588	
845	0	32712	
846	0	32600	
847	0	32800	
848	0	32837	
849	0	32864	
850	0	32956	
851	0	32964	
852	0	32912	
853	0	32828	
854	0	32860	
855	0	32752	
856	0	32732	
857	0	32692	
858	0	32624	
859	0	32652	
860	0	32864	
861	0	32708	
862	0	32736	
863	0	32752	
864	0	32644	
865	0	32656	
866	0	32756	
867	0	32992	
868	0	32956	
869	0	32860	
870	0	32908	
871	0	32953	
872	0	32917	
873	0	32778	
874	0	32773	
875	0	32657	
876	0	32700	
877	0	32762	
878	0	32644	
879	0	32772	
880	0	32964	
881	0	32856	
882	0	32764	
883	0	32740	
884	0	32684	
885	0	32704	
886	0	32620	
887	0	32768	
888	0	32808	
889	0	32832	
890	0	32945	
891	0	32960	
892	0	32889	
893	0	32808	
894	0	32760	
895	0	32644	
896	0	32724	
897	0	32788	
898	0	32757	
899	0	32736	
900	0	32740	
901	0	32720	
902	0	32696	
903	0	32716	
904	0	32778	
905	0	32752	
906	0	32796	
907	0	32864	
908	0	32972	
909	0	32912	
910	0	32792	
911	0	32764	
912	0	32784	
913	0	32728	
914	0	32876	
915	0	32920	
916	0	32784	
917	0	32825	
918	0	32740	
919	0	32712	
920	0	32672	
921	0	32621	
922	0	32585	
923	0	32632	
924	0	32721	
925	0	32912	
926	0	32836	
927	0	32901	
928	0	32832	
929	0	32880	
930	0	32864	
931	0	32832	
932	0	32812	
933	0	32740	
934	0	32756	
935	0	32684	
936	0	32696	
937	0	32960	
938	0	32921	
939	0	32788	
940	0	32832	
941	0	32676	
942	0	32564	
943	0	32686	
944	0	32660	
945	0	32774	
946	0	32780	
947	0	32896	
948	0	32901	
949	0	32844	
950	0	32980	
951	0	32936	
952	0	32740	
953	0	32664	
954	0	32686	
955	0	32773	
956	0	32768	
957	0	32748	
958	0	32808	
959	0	32752	
960	0	32832	
961	0	32556	
962	0	32452	
963	0	32564	
964	0	32656	
965	0	32669	
966	0	32644	
967	0	32968	
968	0	33084	
969	0	33000	
970	0	33124	
971	0	33136	
972	0	33060	
973	0	32964	
974	0	32780	
975	0	32576	
976	0	32580	
977	0	32664	
978	0	32609	
979	0	32528	
980	0	32608	
981	0	32812	
982	0	32769	
983	0	32632	
984	0	32744	
985	0	32877	
986	0	32764	
987	0	32753	
988	0	32924	
989	0	32829	
990	0	32876	
991	0	32774	
992	0	32836	
993	0	32720	
994	0	32888	
995	0	32932	
996	0	32900	
997	0	32912	
998	0	32736	
999	0	32604	
1000	0	32718	
1001	0	32612	
1002	0	32616	
1003	0	32680	
1004	0	32716	
1005	0	32880	
1006	0	32660	
1007	0	32844	
1008	0	32864	
1009	0	32844	
1010	0	32916	
1011	0	32968	
1012	0	32880	
1013	0	32840	
1014	0	32788	
1015	0	32720	
1016	0	32744	
1017	0	32736	
1018	0	32636	
1019	0	32772	
1020	0	32668	
1021	0	32577	
1022	0	32625	
1023	0	32685	
1024	0	32888	
1025	0	32960	
1026	0	32760	
1027	0	32888	
1028	0	32916	
1029	0	32804	
1030	0	33022	
1031	0	32792	
1032	0	32664	
1033	0	32588	
1034	0	32686	
1035	0	32768	
1036	0	32869	
1037	0	33094	
1038	0	32844	
1039	0	32704	
1040	0	32740	
1041	0	32428	
1042	0	32440	
1043	0	32641	
1044	0	32652	
1045	0	32744	
1046	0	32836	
1047	0	32916	
1048	0	32848	
1049	0	32856	
1050	0	33016	
1051	0	32940	
1052	0	32876	
1053	0	32820	
1054	0	32836	
1055	0	32838	
1056	0	32820	
1057	0	32733	
1058	0	32736	
1059	0	32668	
1060	0	32816	
1061	0	32724	
1062	0	32808	
1063	0	32864	
1064	0	32804	
1065	0	32652	
1066	0	32624	
1067	0	32653	
1068	0	32662	
1069	0	32640	
1070	0	32836	
1071	0	32924	
1072	0	32784	
1073	0	32848	
1074	0	32772	
1075	0	32752	
1076	0	32704	
1077	0	32788	
1078	0	32772	
1079	0	32852	
1080	0	33016	
1081	0	32656	
1082	0	32580	
1083	0	32532	
1084	0	32612	
1085	0	32622	
1086	0	32600	
1087	0	32908	
1088	0	33056	
1089	0	32848	
1090	0	33024	
1091	0	32968	
1092	0	33012	
1093	0	32936	
1094	0	32928	
1095	0	32916	
1096	0	32844	
1097	0	32704	
1098	0	32640	
1099	0	32580	
1100	0	32580	
1101	0	32488	
1102	0	32604	
1103	0	32672	
1104	0	32774	
1105	0	32740	
1106	0	32604	
1107	0	32672	
1108	0	32776	
1109	0	32792	
1110	0	33010	
1111	0	32904	
1112	0	32880	
1113	0	32752	
1114	0	32841	
1115	0	32932	
1116	0	33056	
1117	0	32953	
1118	0	32805	
1119	0	32688	
1120	0	32668	
1121	0	32480	
1122	0	32592	
1123	0	32582	
1124	0	32613	
1125	0	32758	
1126	0	32808	
1127	0	33000	
1128	0	33024	
1129	0	32896	
1130	0	32942	
1131	0	32908	
1132	0	32816	
1133	0	32710	
1134	0	32716	
1135	0	32648	
1136	0	32720	
1137	0	32872	
1138	0	33004	
1139	0	32916	
1140	0	32756	
1141	0	32520	
1142	0	32468	
1143	0	32588	
1144	0	32677	
1145	0	32693	
1146	0	32529	
1147	0	32708	
1148	0	32771	
1149	0	32848	
1150	0	33128	
1151	0	33148	
1152	0	33008	
1153	0	33016	
1154	0	32900	
1155	0	32748	
1156	0	32740	
1157	0	32760	
1158	0	32645	
1159	0	32556	
1160	0	32712	
1161	0	32684	
1162	0	32652	
1163	0	32700	
1164	0	32772	
1165	0	32752	
1166	0	32668	
1167	0	32872	
1168	0	32916	
1169	0	32756	
1170	0	32928	
1171	0	32908	
1172	0	32718	
1173	0	32860	
1174	0	32844	
1175	0	32748	
1176	0	32716	
1177	0	32820	
1178	0	32748	
1179	0	32700	
1180	0	32668	
1181	0	32504	
1182	0	32576	
1183	0	32648	
1184	0	32860	
1185	0	32924	
1186	0	32992	
1187	0	32936	
1188	0	32846	
1189	0	32700	
1190	0	32984	
1191	0	33072	
1192	0	32960	
1193	0	32824	
1194	0	32708	
1195	0	32666	
1196	0	32640	
1197	0	32660	
1198	0	32588	
1199	0	32812	
1200	0	32840	
1201	0	32616	
1202	0	32584	
1203	0	32480	
1204	0	32596	
1205	0	32628	
1206	0	32732	
1207	0	33000	
1208	0	33124	
1209	0	32968	
1210	0	32980	
1211	0	32852	
1212	0	32928	
1213	0	32789	
1214	0	32628	
1215	0	32768	
1216	0	32764	
1217	0	32824	
1218	0	32928	
1219	0	33020	
1220	0	32784	
1221	0	32604	
1222	0	32496	
1223	0	32552	
1224	0	32760	
1225	0	32796	
1226	0	32742	
1227	0	32820	
1228	0	32800	
1229	0	32728	
1230	0	32888	
1231	0	32884	
1232	0	32804	
1233	0	32845	
1234	0	32780	
1235	0	32820	
1236	0	32800	
1237	0	32792	
1238	0	32828	
1239	0	32788	
1240	0	32752	
1241	0	32640	
1242	0	32652	
1243	0	32660	
1244	0	32620	
1245	0	32764	
1246	0	32612	
1247	0	32724	
1248	0	32896	
1249	0	32832	
1250	0	32785	
1251	0	32860	
1252	0	32948	
1253	0	33076	
1254	0	33116	
1255	0	33040	
1256	0	32920	
1257	0	32596	
1258	0	32456	
1259	0	32538	
1260	0	32592	
1261	0	32408	
1262	0	32612	
1263	0	32776	
1264	0	32960	
1265	0	32960	
1266	0	32800	
1267	0	32948	
1268	0	32928	
1269	0	32900	
1270	0	32972	
1271	0	32868	
1272	0	32794	
1273	0	32684	
1274	0	32748	
1275	0	32661	
1276	0	32724	
1277	0	32704	
1278	0	32668	
1279	0	32722	
1280	0	32640	
1281	0	32656	
1282	0	32770	
1283	0	32864	
1284	0	32796	
1285	0	32790	
1286	0	32840	
1287	0	33024	
1288	0	32972	
1289	0	32976	
1290	0	32989	
1291	0	32885	
1292	0	32744	
1293	0	32672	
1294	0	32816	
1295	0	32832	
1296	0	32816	
1297	0	32728	
1298	0	32644	
1299	0	32625	
1300	0	32584	
1301	0	32488	
1302	0	32588	
1303	0	32674	
1304	0	32756	
1305	0	32808	
1306	0	32812	
1307	0	32900	
1308	0	32921	
1309	0	32884	
1310	0	33016	
1311	0	32924	
1312	0	32748	
1313	0	32688	
1314	0	32732	
1315	0	32784	
1316	0	32644	
1317	0	32856	
1318	0	32872	
1319	0	32984	
1320	0	32808	
1321	0	32668	
1322	0	32736	
1323	0	32724	
1324	0	32736	
1325	0	32588	
1326	0	32676	
1327	0	32780	
1328	0	32856	
1329	0	32912	
1330	0	33084	
1331	0	32889	
1332	0	32752	
1333	0	32748	
1334	0	32752	
1335	0	32728	
1336	0	32632	
1337	0	32710	
1338	0	32688	
1339	0	32824	
1340	0	32824	
1341	0	32776	
1342	0	32884	
1343	0	32774	
1344	0	32716	
1345	0	32600	
1346	0	32688	
1347	0	32876	
1348	0	32820	
1349	0	32844	
1350	0	32916	
1351	0	32905	
1352	0	32892	
1353	0	32904	
1354	0	32868	
1355	0	32672	
1356	0	32684	
1357	0	32596	
1358	0	32670	
1359	0	32654	
1360	0	32548	
1361	0	32452	
1362	0	32764	
1363	0	32996	
1364	0	32840	
1365	0	32656	
1366	0	32748	
1367	0	32965	
1368	0	33004	
1369	0	32988	
1370	0	33008	
1371	0	32845	
1372	0	32628	
1373	0	32540	
1374	0	32645	
1375	0	32780	
1376	0	32788	
1377	0	32860	
1378	0	32804	
1379	0	32696	
1380	0	32624	
1381	0	32592	
1382	0	32764	
1383	0	32768	
1384	0	32725	
1385	0	32716	
1386	0	32788	
1387	0	32944	
1388	0	32956	
1389	0	32924	
1390	0	33088	
1391	0	32909	
1392	0	32822	
1393	0	32676	
1394	0	32732	
1395	0	32772	
1396	0	32764	
1397	0	32812	
1398	0	32669	
1399	0	32628	
1400	0	32528	
1401	0	32608	
1402	0	32648	
1403	0	32589	
1404	0	32632	
1405	0	32808	
1406	0	32900	
1407	0	32968	
1408	0	33100	
1409	0	33124	
1410	0	33068	
1411	0	32964	
1412	0	32881	
1413	0	32756	
1414	0	32744	
1415	0	32677	
1416	0	32694	
1417	0	32716	
1418	0	32652	
1419	0	32768	
1420	0	32652	
1421	0	32576	
1422	0	32698	
1423	0	32744	
1424	0	32720	
1425	0	32780	
1426	0	32792	
1427	0	32933	
1428	0	32940	
1429	0	32872	
1430	0	33008	
1431	0	33044	
1432	0	32921	
1433	0	32796	
1434	0	32820	
1435	0	32909	
1436	0	32717	
1437	0	32740	
1438	0	32656	
1439	0	32612	
1440	0	32452	
1441	0	32496	
1442	0	32596	
1443	0	32648	
1444	0	32728	
1445	0	32864	
1446	0	32952	
1447	0	33060	
1448	0	33006	
1449	0	33038	
1450	0	32976	
1451	0	32965	
1452	0	32908	
1453	0	32758	
1454	0	32688	
1455	0	32737	
1456	0	32728	
1457	0	32804	
1458	0	32605	
1459	0	32484	
1460	0	32428	
1461	0	32472	
1462	0	32492	
1463	0	32630	
1464	0	32796	
1465	0	32840	
1466	0	32924	
1467	0	33088	
1468	0	32990	
1469	0	32940	
1470	0	32956	
1471	0	32900	
1472	0	32868	
1473	0	32828	
1474	0	32680	
1475	0	32654	
1476	0	32720	
1477	0	32764	
1478	0	32788	
1479	0	32836	
1480	0	32660	
1481	0	32664	
1482	0	32668	
1483	0	32784	
1484	0	32868	
1485	0	32768	
1486	0	32881	
1487	0	32928	
1488	0	32876	
1489	0	32912	
1490	0	32924	
1491	0	32884	
1492	0	32836	
1493	0	32760	
1494	0	32732	
1495	0	32788	
1496	0	32808	
1497	0	32832	
1498	0	32804	
1499	0	32756	
1500	0	32600	
1501	0	32504	
1502	0	32544	
1503	0	32724	
1504	0	32788	
1505	0	32692	
1506	0	32740	
1507	0	32924	
1508	0	32988	
1509	0	32888	
1510	0	32836	
1511	0	32716	
1512	0	32728	
1513	0	32860	
1514	0	32848	
1515	0	32852	
1516	0	32740	
1517	0	32692	
1518	0	32700	
1519	0	32749	
1520	0	32732	
1521	0	32860	
1522	0	32840	
1523	0	32668	
1524	0	32676	
1525	0	32553	
1526	0	32724	
1527	0	32840	
1528	0	32873	
1529	0	33024	
1530	0	33140	
1531	0	32992	
1532	0	32750	
1533	0	32712	
1534	0	32688	
1535	0	32704	
1536	0	32808	
1537	0	32905	
1538	0	32780	
1539	0	32800	
1540	0	32644	
1541	0	32576	
1542	0	32616	
1543	0	32704	
1544	0	32638	
1545	0	32576	
1546	0	32774	
1547	0	33104	
1548	0	33172	
1549	0	33152	
1550	0	33140	
1551	0	32961	
1552	0	32668	
1553	0	32568	
1554	0	32532	
1555	0	32488	
1556	0	32640	
1557	0	32688	
1558	0	32756	
1559	0	32820	
1560	0	32632	
1561	0	32592	
1562	0	32700	
1563	0	32692	
1564	0	32800	
1565	0	32798	
1566	0	32840	
1567	0	33004	
1568	0	32986	
1569	0	32956	
1570	0	32964	
1571	0	32860	
1572	0	32852	
1573	0	32828	
1574	0	32768	
1575	0	32760	
1576	0	32844	
1577	0	32716	
1578	0	32536	
1579	0	32528	
1580	0	32448	
1581	0	32492	
1582	0	32644	
1583	0	32752	
1584	0	32832	
1585	0	32824	
1586	0	32852	
1587	0	32996	
1588	0	32956	
1589	0	32968	
1590	0	33116	
1591	0	33016	
1592	0	32824	
1593	0	32628	
1594	0	32620	
1595	0	32681	
1596	0	32792	
1597	0	32832	
1598	0	32712	
1599	0	32856	
1600	0	32802	
1601	0	32953	
1602	0	32878	
1603	0	32620	
1604	0	32536	
1605	0	32600	
1606	0	32744	
1607	0	32892	
1608	0	32932	
1609	0	32873	
1610	0	32908	
1611	0	32945	
1612	0	32992	
1613	0	32865	
1614	0	32782	
1615	0	32545	
1616	0	32520	
1617	0	32660	
1618	0	32701	
1619	0	32672	
1620	0	32616	
1621	0	32582	
1622	0	32604	
1623	0	32620	
1624	0	32740	
1625	0	33040	
1626	0	33129	
1627	0	32960	
1628	0	32708	
1629	0	32712	
1630	0	32860	
1631	0	32924	
1632	0	32916	
1633	0	32876	
1634	0	32728	
1635	0	32624	
1636	0	32588	
1637	0	32700	
1638	0	32692	
1639	0	32798	
1640	0	32724	
1641	0	32660	
1642	0	32837	
1643	0	32832	
1644	0	32889	
1645	0	32740	
1646	0	32816	
1647	0	32968	
1648	0	32880	
1649	0	32868	
1650	0	32832	
1651	0	32856	
1652	0	32800	
1653	0	32744	
1654	0	32732	
1655	0	32828	
1656	0	32908	
1657	0	32864	
1658	0	32720	
1659	0	32737	
1660	0	32580	
1661	0	32516	
1662	0	32645	
1663	0	32678	
1664	0	32773	
1665	0	32808	
1666	0	32852	
1667	0	32820	
1668	0	32812	
1669	0	32928	
1670	0	32848	
1671	0	32868	
1672	0	32844	
1673	0	32752	
1674	0	32796	
1675	0	32776	
1676	0	32804	
1677	0	32788	
1678	0	32750	
1679	0	32732	
1680	0	32572	
1681	0	32596	
1682	0	32564	
1683	0	32597	
1684	0	32732	
1685	0	32840	
1686	0	32968	
1687	0	32948	
1688	0	32940	
1689	0	33088	
1690	0	33014	
1691	0	33029	
1692	0	32920	
1693	0	32740	
1694	0	32680	
1695	0	32687	
1696	0	32676	
1697	0	32628	
1698	0	32693	
1699	0	32758	
1700	0	32596	
1701	0	32504	
1702	0	32660	
1703	0	32776	
1704	0	32828	
1705	0	32628	
1706	0	32886	
1707	0	33044	
1708	0	33048	
1709	0	32928	
1710	0	32864	
1711	0	32820	
1712	0	32716	
1713	0	32864	
1714	0	32788	
1715	0	32744	
1716	0	32704	
1717	0	32672	
1718	0	32596	
1719	0	32736	
1720	0	32724	
1721	0	32652	
1722	0	32716	
1723	0	32670	
1724	0	32788	
1725	0	32746	
1726	0	32884	
1727	0	32802	
1728	0	32830	
1729	0	32924	
1730	0	32960	
1731	0	32876	
1732	0	32904	
1733	0	32802	
1734	0	32712	
1735	0	32692	
1736	0	32784	
1737	0	32878	
1738	0	32844	
1739	0	32720	
1740	0	32472	
1741	0	32504	
1742	0	32604	
1743	0	32700	
1744	0	32749	
1745	0	32632	
1746	0	32668	
1747	0	32638	
1748	0	32664	
1749	0	32856	
1750	0	33076	
1751	0	33144	
1752	0	32984	
1753	0	32864	
1754	0	33046	
1755	0	32984	
1756	0	32764	
1757	0	32708	
1758	0	32604	
1759	0	32772	
1760	0	32680	
1761	0	32561	
1762	0	32404	
1763	0	32576	
1764	0	32784	
1765	0	32732	
1766	0	32852	
1767	0	32900	
1768	0	32964	
1769	0	33185	
1770	0	33044	
1771	0	32901	
1772	0	32888	
1773	0	32840	
1774	0	32840	
1775	0	32641	
1776	0	32520	
1777	0	32493	
1778	0	32596	
1779	0	32705	
1780	0	32640	
1781	0	32656	
1782	0	32824	
1783	0	32860	
1784	0	32916	
1785	0	32712	
1786	0	32840	
1787	0	32836	
1788	0	32880	
1789	0	32966	
1790	0	32893	
1791	0	32788	
1792	0	32752	
1793	0	32752	
1794	0	32724	
1795	0	32744	
1796	0	32876	
1797	0	32840	
1798	0	32748	
1799	0	32732	
1800	0	32652	
1801	0	32592	
1802	0	32664	
1803	0	32808	
1804	0	32832	
1805	0	32736	
1806	0	32828	
1807	0	32894	
1808	0	32876	
1809	0	32869	
1810	0	32816	
1811	0	32845	
1812	0	32840	
1813	0	32860	
1814	0	32756	
1815	0	32772	
1816	0	32716	
1817	0	32676	
1818	0	32744	
1819	0	32916	
1820	0	32620	
1821	0	32505	
1822	0	32676	
1823	0	32840	
1824	0	32888	
1825	0	32676	
1826	0	32752	
1827	0	32892	
1828	0	32860	
1829	0	32892	
1830	0	32948	
1831	0	32924	
1832	0	32900	
1833	0	32736	
1834	0	32648	
1835	0	32753	
1836	0	32860	
1837	0	32628	
1838	0	32629	
1839	0	32784	
1840	0	32748	
1841	0	32680	
1842	0	32684	
1843	0	32716	
1844	0	32764	
1845	0	32760	
1846	0	32840	
1847	0	32908	
1848	0	32852	
1849	0	32932	
1850	0	32884	
1851	0	32928	
1852	0	32800	
1853	0	32824	
1854	0	32692	
1855	0	32620	
1856	0	32608	
1857	0	32608	
1858	0	32532	
1859	0	32728	
1860	0	32712	
1861	0	32784	
1862	0	32820	
1863	0	32965	
1864	0	33184	
1865	0	33052	
1866	0	32824	
1867	0	32672	
1868	0	32548	
1869	0	32812	
1870	0	32992	
1871	0	32912	
1872	0	32720	
1873	0	32692	
1874	0	32736	
1875	0	32728	
1876	0	32584	
1877	0	32584	
1878	0	32692	
1879	0	32868	
1880	0	32740	
1881	0	32660	
1882	0	32760	
1883	0	32748	
1884	0	32748	
1885	0	32672	
1886	0	32848	
1887	0	32916	
1888	0	32948	
1889	0	32944	
1890	0	32840	
1891	0	32744	
1892	0	32820	
1893	0	32743	
1894	0	32736	
1895	0	32832	
1896	0	32848	
1897	0	32832	
1898	0	32720	
1899	0	32772	
1900	0	32604	
1901	0	32608	
1902	0	32644	
1903	0	32640	
1904	0	32716	
1905	0	32768	
1906	0	32949	
1907	0	32976	
1908	0	32952	
1909	0	32964	
1910	0	32848	
1911	0	32784	
1912	0	32796	
1913	0	32768	
1914	0	32904	
1915	0	32822	
1916	0	32784	
1917	0	32684	
1918	0	32768	
1919	0	32664	
1920	0	32416	
1921	0	32516	
1922	0	32748	
1923	0	32804	
1924	0	32796	
1925	0	32716	
1926	0	32904	
1927	0	32978	
1928	0	32960	
1929	0	33012	
1930	0	32932	
1931	0	32844	
1932	0	32848	
1933	0	32812	
1934	0	32788	
1935	0	32776	
1936	0	32661	
1937	0	32612	
1938	0	32572	
1939	0	32685	
1940	0	32653	
1941	0	32796	
1942	0	32801	
1943	0	32892	
1944	0	32752	
1945	0	32540	
1946	0	32796	
1947	0	33001	
1948	0	33068	
1949	0	33024	
1950	0	32744	
1951	0	32724	
1952	0	32680	
1953	0	32740	
1954	0	32768	
1955	0	32760	
1956	0	32832	
1957	0	32744	
1958	0	32728	
1959	0	32704	
1960	0	32732	
1961	0	32729	
1962	0	32716	
1963	0	32748	
1964	0	32778	
1965	0	32780	
1966	0	32900	
1967	0	32976	
1968	0	33000	
1969	0	33060	
1970	0	32812	
1971	0	32710	
1972	0	32684	
1973	0	32692	
1974	0	32740	
1975	0	32812	
1976	0	32764	
1977	0	32708	
1978	0	32640	
1979	0	32632	
1980	0	32636	
1981	0	32728	
1982	0	32764	
1983	0	32736	
1984	0	32766	
1985	0	32773	
1986	0	32924	
1987	0	32872	
1988	0	32740	
1989	0	32848	
1990	0	32844	
1991	0	32868	
1992	0	32868	
1993	0	32744	
1994	0	32784	
1995	0	32908	
1996	0	32848	
1997	0	32696	
1998	0	32620	
1999	0	32688	
2000	0	32740	
2001	0	32784	
2002	0	32668	
2003	0	32566	
2004	0	32636	
2005	0	32696	
2006	0	32980	
2007	0	32984	
2008	0	32796	
2009	0	32880	
2010	0	32788	
2011	0	32774	
2012	0	32757	
2013	0	32772	
2014	0	32708	
2015	0	32628	
2016	0	32796	
2017	0	32950	
2018	0	32853	
2019	0	32904	
2020	0	32748	
2021	0	32764	
2022	0	32722	
2023	0	32660	
2024	0	32613	
2025	0	32704	
2026	0	32932	
2027	0	32948	
2028	0	32908	
2029	0	32968	
2030	0	32904	
2031	0	32832	
2032	0	32752	
2033	0	32757	
2034	0	32621	
2035	0	32592	
2036	0	32509	
2037	0	32684	
2038	0	32856	
2039	0	32880	
2040	0	32816	
2041	0	32685	
2042	0	32756	
2043	0	32852	
2044	0	32740	
2045	0	32584	
2046	0	32757	
2047	0	32928	
2048	0	32860	
2049	0	32968	
2050	0	32936	
2051	0	32892	
2052	0	32816	
2053	0	32800	
2054	0	32684	
2055	0	32804	
2056	0	32944	
2057	0	32932	
2058	0	32828	
2059	0	32660	
2060	0	32456	
2061	0	32448	
2062	0	32548	
2063	0	32712	
2064	0	32680	
2065	0	32776	
2066	0	32988	
2067	0	32964	
2068	0	32844	
2069	0	32928	
2070	0	32944	
2071	0	32864	
2072	0	32864	
2073	0	32732	
2074	0	32712	
2075	0	32714	
2076	0	32712	
2077	0	32830	
2078	0	32752	
2079	0	32660	
2080	0	32629	
2081	0	32784	
2082	0	33013	
2083	0	32996	
2084	0	32777	
2085	0	32694	
2086	0	32752	
2087	0	32740	
2088	0	32724	
2089	0	32868	
2090	0	32820	
2091	0	32788	
2092	0	32736	
2093	0	32676	
2094	0	32700	
2095	0	32853	
2096	0	32908	
2097	0	32736	
2098	0	32772	
2099	0	32704	
2100	0	32710	
2101	0	32796	
2102	0	32576	
2103	0	32573	
2104	0	32604	
2105	0	32745	
2106	0	32920	
2107	0	33048	
2108	0	33128	
2109	0	33088	
2110	0	32960	
2111	0	32848	
2112	0	32832	
2113	0	32816	
2114	0	32785	
2115	0	32648	
2116	0	32580	
2117	0	32568	
2118	0	32628	
2119	0	32512	
2120	0	32512	
2121	0	32648	
2122	0	32774	
2123	0	32756	
2124	0	32700	
2125	0	32758	
2126	0	32964	
2127	0	33012	
2128	0	32996	
2129	0	32952	
2130	0	32877	
2131	0	32788	
2132	0	32752	
2133	0	32760	
2134	0	32833	
2135	0	32844	
2136	0	32768	
2137	0	32660	
2138	0	32636	
2139	0	32636	
2140	0	32592	
2141	0	32676	
2142	0	32740	
2143	0	32832	
2144	0	32860	
2145	0	32836	
2146	0	32913	
2147	0	32888	
2148	0	32812	
2149	0	32852	
2150	0	32884	
2151	0	32988	
2152	0	32868	
2153	0	32812	
2154	0	32684	
2155	0	32616	
2156	0	32640	
2157	0	32664	
2158	0	32713	
2159	0	32652	
2160	0	32568	
2161	0	32621	
2162	0	32480	
2163	0	32661	
2164	0	32948	
2165	0	32778	
2166	0	32870	
2167	0	32984	
2168	0	32840	
2169	0	32996	
2170	0	33021	
2171	0	32860	
2172	0	32868	
2173	0	32844	
2174	0	32760	
2175	0	32752	
2176	0	32781	
2177	0	32820	
2178	0	32828	
2179	0	32608	
2180	0	32573	
2181	0	32676	
2182	0	32556	
2183	0	32620	
2184	0	32716	
2185	0	32788	
2186	0	32820	
2187	0	32836	
2188	0	32872	
2189	0	32896	
2190	0	32876	
2191	0	32952	
2192	0	32952	
2193	0	32844	
2194	0	32828	
2195	0	32800	
2196	0	32864	
2197	0	32792	
2198	0	32920	
2199	0	32785	
2200	0	32616	
2201	0	32576	
2202	0	32489	
2203	0	32584	
2204	0	32670	
2205	0	32680	
2206	0	32892	
2207	0	32980	
2208	0	33028	
2209	0	33024	
2210	0	33076	
2211	0	32980	
2212	0	32832	
2213	0	32577	
2214	0	32536	
2215	0	32616	
2216	0	32640	
2217	0	32664	
2218	0	32796	
2219	0	32804	
2220	0	32772	
2221	0	32736	
2222	0	32728	
2223	0	32680	
2224	0	32590	
2225	0	32657	
2226	0	32775	
2227	0	32844	
2228	0	32932	
2229	0	33080	
2230	0	33021	
2231	0	32872	
2232	0	32792	
2233	0	32856	
2234	0	32848	
2235	0	32752	
2236	0	32757	
2237	0	32748	
2238	0	32776	
2239	0	32668	
2240	0	32568	
2241	0	32532	
2242	0	32600	
2243	0	32872	
2244	0	32872	
2245	0	32788	
2246	0	32920	
2247	0	32909	
2248	0	32924	
2249	0	32948	
2250	0	32936	
2251	0	32861	
2252	0	32748	
2253	0	32820	
2254	0	32844	
2255	0	32760	
2256	0	32572	
2257	0	32548	
2258	0	32668	
2259	0	32733	
2260	0	32742	
2261	0	32652	
2262	0	32612	
2263	0	32740	
2264	0	32728	
2265	0	32680	
2266	0	32872	
2267	0	32972	
2268	0	32957	
2269	0	32968	
2270	0	32832	
2271	0	32778	
2272	0	32824	
2273	0	32833	
2274	0	32832	
2275	0	32804	
2276	0	32768	
2277	0	32708	
2278	0	32824	
2279	0	32768	
2280	0	32725	
2281	0	32624	
2282	0	32612	
2283	0	32832	
2284	0	32836	
2285	0	32828	
2286	0	32904	
2287	0	32889	
2288	0	32916	
2289	0	32860	
2290	0	32668	
2291	0	32684	
2292	0	32800	
2293	0	32760	
2294	0	32900	
2295	0	32789	
2296	0	32672	
2297	0	32680	
2298	0	32948	
2299	0	32820	
2300	0	32721	
2301	0	32804	
2302	0	32660	
2303	0	32852	
2304	0	32652	
2305	0	32677	
2306	0	32832	
2307	0	32952	
2308	0	32984	
2309	0	32936	
2310	0	32704	
2311	0	32668	
2312	0	32700	
2313	0	32736	
2314	0	32764	
2315	0	32724	
2316	0	32778	
2317	0	32640	
2318	0	32712	
2319	0	32784	
2320	0	32708	
2321	0	32724	
2322	0	32684	
2323	0	32686	
2324	0	32748	
2325	0	32860	
2326	0	32960	
2327	0	33080	
2328	0	33084	
2329	0	33006	
2330	0	32854	
2331	0	32736	
2332	0	32736	
2333	0	32704	
2334	0	32741	
2335	0	32749	
2336	0	32728	
2337	0	32756	
2338	0	32784	
2339	0	32589	
2340	0	32504	
2341	0	32612	
2342	0	32636	
2343	0	32791	
2344	0	32800	
2345	0	32872	
2346	0	32888	
2347	0	32892	
2348	0	32997	
2349	0	32952	
2350	0	32884	
2351	0	32854	
2352	0	32892	
2353	0	33068	
2354	0	32900	
2355	0	32734	
2356	0	32668	
2357	0	32533	
2358	0	32560	
2359	0	32484	
2360	0	32608	
2361	0	32648	
2362	0	32768	
2363	0	32808	
2364	0	32696	
2365	0	32644	
2366	0	32640	
2367	0	32752	
2368	0	32908	
2369	0	32856	
2370	0	32812	
2371	0	32976	
2372	0	33020	
2373	0	32996	
2374	0	32952	
2375	0	32916	
2376	0	32832	
2377	0	32692	
2378	0	32640	
2379	0	32596	
2380	0	32608	
2381	0	32669	
2382	0	32736	
2383	0	32788	
2384	0	32632	
2385	0	32840	
2386	0	32988	
2387	0	32992	
2388	0	32996	
2389	0	32920	
2390	0	32816	
2391	0	32832	
2392	0	32761	
2393	0	32664	
2394	0	32644	
2395	0	32704	
2396	0	32608	
2397	0	32628	
2398	0	32788	
2399	0	32712	
2400	0	32685	
2401	0	32704	
2402	0	32700	
2403	0	32728	
2404	0	32684	
2405	0	32876	
2406	0	32996	
2407	0	32904	
2408	0	33020	
2409	0	32984	
2410	0	32816	
2411	0	32720	
2412	0	32680	
2413	0	32812	
2414	0	32749	
2415	0	32729	
2416	0	32741	
2417	0	32712	
2418	0	32768	
2419	0	32608	
2420	0	32609	
2421	0	32480	
2422	0	32584	
2423	0	32724	
2424	0	32684	
2425	0	32964	
2426	0	33232	
2427	0	33224	
2428	0	33144	
2429	0	33124	
2430	0	32904	
2431	0	32612	
2432	0	32752	
2433	0	32772	
2434	0	32772	
2435	0	32600	
2436	0	32756	
2437	0	32672	
2438	0	32520	
2439	0	32326	
2440	0	32420	
2441	0	32668	
2442	0	32805	
2443	0	32789	
2444	0	32698	
2445	0	32844	
2446	0	32768	
2447	0	32848	
2448	0	32981	
2449	0	32888	
2450	0	32832	
2451	0	32796	
2452	0	32780	
2453	0	32744	
2454	0	32968	
2455	0	32920	
2456	0	32896	
2457	0	32944	
2458	0	32960	
2459	0	32784	
2460	0	32748	
2461	0	32605	
2462	0	32486	
2463	0	32484	
2464	0	32608	
2465	0	32816	
2466	0	32929	
2467	0	32988	
2468	0	33064	
2469	0	32860	
2470	0	32828	
2471	0	32876	
2472	0	32776	
2473	0	32784	
2474	0	32830	
2475	0	32676	
2476	0	32660	
2477	0	32728	
2478	0	32816	
2479	0	32624	
2480	0	32544	
2481	0	32616	
2482	0	32672	
2483	0	32728	
2484	0	32728	
2485	0	32872	
2486	0	33052	
2487	0	32992	
2488	0	32956	
2489	0	32936	
2490	0	32821	
2491	0	32728	
2492	0	32788	
2493	0	32704	
2494	0	32718	
2495	0	32648	
2496	0	32724	
2497	0	32792	
2498	0	32856	
2499	0	32718	
2500	0	32660	
2501	0	32784	
2502	0	32671	
2503	0	32606	
2504	0	32508	
2505	0	32826	
2506	0	33044	
2507	0	32924	
2508	0	32972	
2509	0	32952	
2510	0	32900	
2511	0	32816	
2512	0	32728	
2513	0	32800	
2514	0	32752	
2515	0	32784	
2516	0	32868	
2517	0	32768	
2518	0	32824	
2519	0	32596	
2520	0	32608	
2521	0	32677	
2522	0	32792	
2523	0	32820	
2524	0	32772	
2525	0	32825	
2526	0	32868	
2527	0	32844	
2528	0	32721	
2529	0	32788	
2530	0	32824	
2531	0	32888	
2532	0	32956	
2533	0	32908	
2534	0	32856	
2535	0	32750	
2536	0	32628	
2537	0	32588	
2538	0	32668	
2539	0	32500	
2540	0	32588	
2541	0	32724	
2542	0	32720	
2543	0	32760	
2544	0	32748	
2545	0	32908	
2546	0	32964	
2547	0	33034	
2548	0	32988	
2549	0	32912	
2550	0	32812	
2551	0	32828	
2552	0	32768	
2553	0	32684	
2554	0	32832	
2555	0	32824	
2556	0	32769	
2557	0	32636	
2558	0	32644	
2559	0	32596	
2560	0	32696	
2561	0	32648	
2562	0	32752	
2563	0	32748	
2564	0	32660	
2565	0	32734	
2566	0	32953	
2567	0	32860	
2568	0	32940	
2569	0	32972	
2570	0	32888	
2571	0	32860	
2572	0	32940	
2573	0	32984	
2574	0	32913	
2575	0	32733	
2576	0	32640	
2577	0	32614	
2578	0	32812	
2579	0	32604	
2580	0	32500	
2581	0	32544	
2582	0	32716	
2583	0	32920	
2584	0	32789	
2585	0	32812	
2586	0	32744	
2587	0	32772	
2588	0	33068	
2589	0	32913	
2590	0	32776	
2591	0	32712	
2592	0	32776	
2593	0	32844	
2594	0	33084	
2595	0	32864	
2596	0	32752	
2597	0	32588	
2598	0	32708	
2599	0	32512	
2600	0	32612	
2601	0	32732	
2602	0	32736	
2603	0	32768	
2604	0	32713	
2605	0	32884	
2606	0	32940	
2607	0	32808	
2608	0	32944	
2609	0	32913	
2610	0	32900	
2611	0	32940	
2612	0	32832	
2613	0	32800	
2614	0	32808	
2615	0	32596	
2616	0	32528	
2617	0	32478	
2618	0	32612	
2619	0	32556	
2620	0	32704	
2621	0	32760	
2622	0	32832	
2623	0	32864	
2624	0	32684	
2625	0	32838	
2626	0	32992	
2627	0	32988	
2628	0	32996	
2629	0	32932	
2630	0	32892	
2631	0	32916	
2632	0	32768	
2633	0	32708	
2634	0	32688	
2635	0	32728	
2636	0	32720	
2637	0	32740	
2638	0	32828	
2639	0	32660	
2640	0	32700	
2641	0	32660	
2642	0	32720	
2643	0	32784	
2644	0	32696	
2645	0	32765	
2646	0	32840	
2647	0	32873	
2648	0	33008	
2649	0	33024	
2650	0	32856	
2651	0	32708	
2652	0	32640	
2653	0	32740	
2654	0	32980	
2655	0	32948	
2656	0	32656	
2657	0	32614	
2658	0	32672	
2659	0	32564	
2660	0	32596	
2661	0	32628	
2662	0	32736	
2663	0	32812	
2664	0	32868	
2665	0	33013	
2666	0	33100	
2667	0	32884	
2668	0	32905	
2669	0	32840	
2670	0	32788	
2671	0	32749	
2672	0	32700	
2673	0	32674	
2674	0	32768	
2675	0	32766	
2676	0	32812	
2677	0	32772	
2678	0	32676	
2679	0	32628	
2680	0	32717	
2681	0	32820	
2682	0	32858	
2683	0	32764	
2684	0	32512	
2685	0	32644	
2686	0	32844	
2687	0	32823	
2688	0	32976	
2689	0	33116	
2690	0	32965	
2691	0	32656	
2692	0	32672	
2693	0	32712	
2694	0	32772	
2695	0	32680	
2696	0	32660	
2697	0	32720	
2698	0	32916	
2699	0	32750	
2700	0	32704	
2701	0	32620	
2702	0	32737	
2703	0	32788	
2704	0	32768	
2705	0	32916	
2706	0	32972	
2707	0	32880	
2708	0	32940	
2709	0	32800	
2710	0	32736	
2711	0	32873	
2712	0	32900	
2713	0	32725	
2714	0	32844	
2715	0	32620	
2716	0	32568	
2717	0	32640	
2718	0	32744	
2719	0	32656	
2720	0	32708	
2721	0	32732	
2722	0	32712	
2723	0	32656	
2724	0	32600	
2725	0	32758	
2726	0	32852	
2727	0	32932	
2728	0	32998	
2729	0	32988	
2730	0	32889	
2731	0	32844	
2732	0	32788	
2733	0	32736	
2734	0	32780	
2735	0	32808	
2736	0	32748	
2737	0	32829	
2738	0	32708	
2739	0	32622	
2740	0	32660	
2741	0	32676	
2742	0	32712	
2743	0	32732	
2744	0	32736	
2745	0	32925	
2746	0	33013	
2747	0	32911	
2748	0	32920	
2749	0	32936	
2750	0	32816	
2751	0	32673	
2752	0	32697	
2753	0	32588	
2754	0	32568	
2755	0	32732	
2756	0	32736	
2757	0	32852	
2758	0	32776	
2759	0	32528	
2760	0	32608	
2761	0	32740	
2762	0	32760	
2763	0	32748	
2764	0	32802	
2765	0	32980	
2766	0	33004	
2767	0	32964	
2768	0	32980	
2769	0	32940	
2770	0	32917	
2771	0	32869	
2772	0	32876	
2773	0	32736	
2774	0	32584	
2775	0	32480	
2776	0	32532	
2777	0	32580	
2778	0	32632	
2779	0	32656	
2780	0	32804	
2781	0	32822	
2782	0	32768	
2783	0	32724	
2784	0	32728	
2785	0	32844	
2786	0	32877	
2787	0	32876	
2788	0	32932	
2789	0	32846	
2790	0	32716	
2791	0	32820	
2792	0	33215	
2793	0	33296	
2794	0	32836	
2795	0	32696	
2796	0	32616	
2797	0	32692	
2798	0	32664	
2799	0	32692	
2800	0	32613	
2801	0	32560	
2802	0	32596	
2803	0	32724	
2804	0	32732	
2805	0	32900	
2806	0	32936	
2807	0	32864	
2808	0	33040	
2809	0	32852	
2810	0	32864	
2811	0	32732	
2812	0	32720	
2813	0	32720	
2814	0	32784	
2815	0	32782	
2816	0	32740	
2817	0	32832	
2818	0	32716	
2819	0	32638	
2820	0	32564	
2821	0	32572	
2822	0	32740	
2823	0	32756	
2824	0	32765	
2825	0	33096	
2826	0	33005	
2827	0	32864	
2828	0	32876	
2829	0	32884	
2830	0	32688	
2831	0	32600	
2832	0	32676	
2833	0	32740	
2834	0	32877	
2835	0	32812	
2836	0	32903	
2837	0	33072	
2838	0	33020	
2839	0	32852	
2840	0	32660	
2841	0	32476	
2842	0	32436	
2843	0	32444	
2844	0	32456	
2845	0	32650	
2846	0	32756	
2847	0	32836	
2848	0	32888	
2849	0	32820	
2850	0	32824	
2851	0	32868	
2852	0	32840	
2853	0	32856	
2854	0	32924	
2855	0	32797	
2856	0	32801	
2857	0	32720	
2858	0	32668	
2859	0	32680	
2860	0	32628	
2861	0	32684	
2862	0	32628	
2863	0	32704	
2864	0	32780	
2865	0	32936	
2866	0	33080	
2867	0	32976	
2868	0	33036	
2869	0	32972	
2870	0	32900	
2871	0	32880	
2872	0	32788	
2873	0	32804	
2874	0	32932	
2875	0	32774	
2876	0	32488	
2877	0	32636	
2878	0	32756	
2879	0	32740	
2880	0	32644	
2881	0	32628	
2882	0	32592	
2883	0	32540	
2884	0	32716	
2885	0	32984	
2886	0	33028	
2887	0	32860	
2888	0	32913	
2889	0	32980	
2890	0	32741	
2891	0	32804	
2892	0	32854	
2893	0	32804	
2894	0	32800	
2895	0	32768	
2896	0	32782	
2897	0	32656	
2898	0	32580	
2899	0	32404	
2900	0	32480	
2901	0	32637	
2902	0	32692	
2903	0	32684	
2904	0	32825	
2905	0	32988	
2906	0	33008	
2907	0	32844	
2908	0	32944	
2909	0	32896	
2910	0	32840	
2911	0	32808	
2912	0	32668	
2913	0	32652	
2914	0	32780	
2915	0	32884	
2916	0	32772	
2917	0	32748	
2918	0	32624	
2919	0	32664	
2920	0	32676	
2921	0	32608	
2922	0	32669	
2923	0	32620	
2924	0	32836	
2925	0	32924	
2926	0	33092	
2927	0	33072	
2928	0	33112	
2929	0	33080	
2930	0	32888	
2931	0	32616	
2932	0	32436	
2933	0	32504	
2934	0	32669	
2935	0	32661	
2936	0	32728	
2937	0	32952	
2938	0	32897	
2939	0	32672	
2940	0	32672	
2941	0	32772	
2942	0	32800	
2943	0	32640	
2944	0	32636	
2945	0	32828	
2946	0	32876	
2947	0	32812	
2948	0	32992	
2949	0	32980	
2950	0	32892	
2951	0	32744	
2952	0	32768	
2953	0	32833	
2954	0	32808	
2955	0	32756	
2956	0	32672	
2957	0	32733	
2958	0	32676	
2959	0	32684	
2960	0	32644	
2961	0	32669	
2962	0	32652	
2963	0	32560	
2964	0	32628	
2965	0	32829	
2966	0	32952	
2967	0	33028	
2968	0	33022	
2969	0	33096	
2970	0	32856	
2971	0	32772	
2972	0	32708	
2973	0	32745	
2974	0	32716	
2975	0	32636	
2976	0	32793	
2977	0	32852	
2978	0	32846	
2979	0	32796	
2980	0	32740	
2981	0	32540	
2982	0	32648	
2983	0	32640	
2984	0	32784	
2985	0	32948	
2986	0	32932	
2987	0	33028	
2988	0	33120	
2989	0	32968	
2990	0	32568	
2991	0	32428	
2992	0	32440	
2993	0	32632	
2994	0	32870	
2995	0	32976	
2996	0	32932	
2997	0	32752	
2998	0	32712	
2999	0	32640	
3000	0	32552	
3001	0	32596	
3002	0	32716	
3003	0	32828	
3004	0	32852	
3005	0	33040	
3006	0	32952	
3007	0	32900	
3008	0	32888	
3009	0	32948	
3010	0	32832	
3011	0	32806	
3012	0	32684	
3013	0	32644	
3014	0	32704	
3015	0	32764	
3016	0	32788	
3017	0	32776	
3018	0	32756	
3019	0	32736	
3020	0	32728	
3021	0	32700	
3022	0	32688	
3023	0	32628	
3024	0	32764	
3025	0	32892	
3026	0	32964	
3027	0	32904	
3028	0	32876	
3029	0	32824	
3030	0	32820	
3031	0	32808	
3032	0	32760	
3033	0	32728	
3034	0	32748	
3035	0	32752	
3036	0	32800	
3037	0	32876	
3038	0	32778	
3039	0	32704	
3040	0	32664	
3041	0	32700	
3042	0	32696	
3043	0	32480	
3044	0	32658	
3045	0	32884	
3046	0	32968	
3047	0	32933	
3048	0	33060	
3049	0	32952	
3050	0	32744	
3051	0	32720	
3052	0	32832	
3053	0	32744	
3054	0	32728	
3055	0	32703	
3056	0	32704	
3057	0	32724	
3058	0	32657	
3059	0	32648	
3060	0	32775	
3061	0	32812	
3062	0	32925	
3063	0	32840	
3064	0	32813	
3065	0	32792	
3066	0	32644	
3067	0	32704	
3068	0	32940	
3069	0	32836	
3070	0	32800	
3071	0	32936	
3072	0	32858	
3073	0	32840	
3074	0	32872	
3075	0	32872	
3076	0	32756	
3077	0	32740	
3078	0	32676	
3079	0	32657	
3080	0	32592	
3081	0	32440	
3082	0	32476	
3083	0	32644	
3084	0	32768	
3085	0	32928	
3086	0	33032	
3087	0	32932	
3088	0	32964	
3089	0	32977	
3090	0	32768	
3091	0	32852	
3092	0	32844	
3093	0	32848	
3094	0	32705	
3095	0	32804	
3096	0	32832	
3097	0	32900	
3098	0	32744	
3099	0	32613	
3100	0	32694	
3101	0	32640	
3102	0	32640	
3103	0	32660	
3104	0	32721	
3105	0	32800	
3106	0	32812	
3107	0	32860	
3108	0	32920	
3109	0	32896	
3110	0	32776	
3111	0	32748	
3112	0	32784	
3113	0	32712	
3114	0	32824	
3115	0	32765	
3116	0	32724	
3117	0	32712	
3118	0	32760	
3119	0	32588	
3120	0	32580	
3121	0	32596	
3122	0	32736	
3123	0	32686	
3124	0	32824	
3125	0	33008	
3126	0	33128	
3127	0	33232	
3128	0	33088	
3129	0	32780	
3130	0	32752	
3131	0	32732	
3132	0	32752	
3133	0	32684	
3134	0	32764	
3135	0	32780	
3136	0	32660	
3137	0	32701	
3138	0	32568	
3139	0	32552	
3140	0	32560	
3141	0	32580	
3142	0	32637	
3143	0	32732	
3144	0	32964	
3145	0	33140	
3146	0	32988	
3147	0	32856	
3148	0	32793	
3149	0	32776	
3150	0	32764	
3151	0	32824	
3152	0	32860	
3153	0	33022	
3154	0	33044	
3155	0	32788	
3156	0	32536	
3157	0	32804	
3158	0	32684	
3159	0	32508	
3160	0	32612	
3161	0	32703	
3162	0	32692	
3163	0	32644	
3164	0	32760	
3165	0	32872	
3166	0	33084	
3167	0	33088	
3168	0	33056	
3169	0	32948	
3170	0	32748	
3171	0	32724	
3172	0	32676	
3173	0	32704	
3174	0	32708	
3175	0	32654	
3176	0	32608	
3177	0	32661	
3178	0	32648	
3179	0	32764	
3180	0	32884	
3181	0	32878	
3182	0	32964	
3183	0	32900	
3184	0	32956	
3185	0	32980	
3186	0	32868	
3187	0	32844	
3188	0	32736	
3189	0	32648	
3190	0	32608	
3191	0	32613	
3192	0	32804	
3193	0	32820	
3194	0	32684	
3195	0	32724	
3196	0	32768	
3197	0	32725	
3198	0	32600	
3199	0	32624	
3200	0	32696	
3201	0	32788	
3202	0	32837	
3203	0	32724	
3204	0	32812	
3205	0	32820	
3206	0	32884	
3207	0	32892	
3208	0	32992	
3209	0	32876	
3210	0	32820	
3211	0	32892	
3212	0	32780	
3213	0	32878	
3214	0	32872	
3215	0	32748	
3216	0	32696	
3217	0	32710	
3218	0	32548	
3219	0	32492	
3220	0	32661	
3221	0	32706	
3222	0	32800	
3223	0	32740	
3224	0	32940	
3225	0	33064	
3226	0	32962	
3227	0	33024	
3228	0	33044	
3229	0	32836	
3230	0	32784	
3231	0	32812	
3232	0	32568	
3233	0	32740	
3234	0	32660	
3235	0	32540	
3236	0	32460	
3237	0	32576	
3238	0	32576	
3239	0	32888	
3240	0	33081	
3241	0	32980	
3242	0	32776	
3243	0	32664	
3244	0	32724	
3245	0	32812	
3246	0	32724	
3247	0	32840	
3248	0	33004	
3249	0	32864	
3250	0	32630	
3251	0	32725	
3252	0	32836	
3253	0	32848	
3254	0	32968	
3255	0	32908	
3256	0	32684	
3257	0	32604	
3258	0	32500	
3259	0	32656	
3260	0	32608	
3261	0	32584	
3262	0	32775	
3263	0	32720	
3264	0	32992	
3265	0	33128	
3266	0	32988	
3267	0	33000	
3268	0	32988	
3269	0	32936	
3270	0	32736	
3271	0	32700	
3272	0	32684	
3273	0	32724	
3274	0	32844	
3275	0	32704	
3276	0	32708	
3277	0	32676	
3278	0	32672	
3279	0	32668	
3280	0	32673	
3281	0	32720	
3282	0	32752	
3283	0	32620	
3284	0	32804	
3285	0	32900	
3286	0	32900	
3287	0	32960	
3288	0	32996	
3289	0	32920	
3290	0	32968	
3291	0	32836	
3292	0	32852	
3293	0	32788	
3294	0	32684	
3295	0	32608	
3296	0	32670	
3297	0	32780	
3298	0	32660	
3299	0	32486	
3300	0	32568	
3301	0	32592	
3302	0	32756	
3303	0	32764	
3304	0	32864	
3305	0	32908	
3306	0	32993	
3307	0	33024	
3308	0	33088	
3309	0	32928	
3310	0	32949	
3311	0	32772	
3312	0	32636	
3313	0	32608	
3314	0	32612	
3315	0	32616	
3316	0	32644	
3317	0	32716	
3318	0	32732	
3319	0	32720	
3320	0	32660	
3321	0	32676	
3322	0	32668	
3323	0	32732	
3324	0	32886	
3325	0	32868	
3326	0	32804	
3327	0	33004	
3328	0	33108	
3329	0	32904	
3330	0	32796	
3331	0	32796	
3332	0	32706	
3333	0	32832	
3334	0	32916	
3335	0	32800	
3336	0	32589	
3337	0	32700	
3338	0	32620	
3339	0	32572	
3340	0	32692	
3341	0	32632	
3342	0	32708	
3343	0	32548	
3344	0	32740	
3345	0	32964	
3346	0	33120	
3347	0	33117	
3348	0	32916	
3349	0	32832	
3350	0	32820	
3351	0	32784	
3352	0	32821	
3353	0	32805	
3354	0	32712	
3355	0	32636	
3356	0	32568	
3357	0	32645	
3358	0	32602	
3359	0	32676	
3360	0	32580	
3361	0	32653	
3362	0	32646	
3363	0	32680	
3364	0	32920	
3365	0	32976	
3366	0	32976	
3367	0	33004	
3368	0	32868	
3369	0	32852	
3370	0	32980	
3371	0	32864	
3372	0	32728	
3373	0	32648	
3374	0	32716	
3375	0	32756	
3376	0	32704	
3377	0	32848	
3378	0	32704	
3379	0	32668	
3380	0	32608	
3381	0	32628	
3382	0	32692	
3383	0	32716	
3384	0	32962	
3385	0	32972	
3386	0	32876	
3387	0	32952	
3388	0	32904	
3389	0	32856	
3390	0	32828	
3391	0	32775	
3392	0	32760	
3393	0	32764	
3394	0	32832	
3395	0	32792	
3396	0	32620	
3397	0	32613	
3398	0	32464	
3399	0	32536	
3400	0	32536	
3401	0	32702	
3402	0	32772	
3403	0	32700	
3404	0	32905	
3405	0	32921	
3406	0	33065	
3407	0	33068	
3408	0	32996	
3409	0	32852	
3410	0	32725	
3411	0	32828	
3412	0	32812	
3413	0	32892	
3414	0	32756	
3415	0	32644	
3416	0	32620	
3417	0	32729	
3418	0	32676	
3419	0	32708	
3420	0	32668	
3421	0	32668	
3422	0	32645	
3423	0	32628	
3424	0	32860	
3425	0	33124	
3426	0	33012	
3427	0	33044	
3428	0	32968	
3429	0	32760	
3430	0	32688	
3431	0	32464	
3432	0	32425	
3433	0	32612	
3434	0	32600	
3435	0	32704	
3436	0	32980	
3437	0	33248	
3438	0	33120	
3439	0	32846	
3440	0	32697	
3441	0	32680	
3442	0	32728	
3443	0	32548	
3444	0	32790	
3445	0	32868	
3446	0	32828	
3447	0	32868	
3448	0	32864	
3449	0	32948	
3450	0	32785	
3451	0	32732	
3452	0	32720	
3453	0	32688	
3454	0	32716	
3455	0	32592	
3456	0	32656	
3457	0	32752	
3458	0	32672	
3459	0	32716	
3460	0	32729	
3461	0	32680	
3462	0	32768	
3463	0	32784	
3464	0	32980	
3465	0	33021	
3466	0	32960	
3467	0	32832	
3468	0	32776	
3469	0	32804	
3470	0	32780	
3471	0	32712	
3472	0	32716	
3473	0	32820	
3474	0	32772	
3475	0	32808	
3476	0	32804	
3477	0	32900	
3478	0	32700	
3479	0	32597	
3480	0	32676	
3481	0	32752	
3482	0	32729	
3483	0	32692	
3484	0	32788	
3485	0	32736	
3486	0	32553	
3487	0	32772	
3488	0	32932	
3489	0	32948	
3490	0	33036	
3491	0	32780	
3492	0	32772	
3493	0	32806	
3494	0	32912	
3495	0	32812	
3496	0	32672	
3497	0	32617	
3498	0	32460	
3499	0	32624	
3500	0	32864	
3501	0	32912	
3502	0	32764	
3503	0	32768	
3504	0	32868	
3505	0	32892	
3506	0	32844	
3507	0	32976	
3508	0	32928	
3509	0	32884	
3510	0	32792	
3511	0	32628	
3512	0	32644	
3513	0	32652	
3514	0	32716	
3515	0	32704	
3516	0	32726	
3517	0	32812	
3518	0	32657	
3519	0	32660	
3520	0	32644	
3521	0	32696	
3522	0	32748	
3523	0	32764	
3524	0	32876	
3525	0	32878	
3526	0	32720	
3527	0	32800	
3528	0	32809	
3529	0	32820	
3530	0	32936	
3531	0	33036	
3532	0	33048	
3533	0	32884	
3534	0	32688	
3535	0	32656	
3536	0	32637	
3537	0	32692	
3538	0	32572	
3539	0	32784	
3540	0	32796	
3541	0	32900	
3542	0	32776	
3543	0	32596	
3544	0	32780	
3545	0	32836	
3546	0	32752	
3547	0	32784	
3548	0	32828	
3549	0	32764	
3550	0	32716	
3551	0	32828	
3552	0	32904	
3553	0	32924	
3554	0	32944	
3555	0	32904	
3556	0	32800	
3557	0	32696	
3558	0	32452	
3559	0	32452	
3560	0	32424	
3561	0	32608	
3562	0	32628	
3563	0	32641	
3564	0	32764	
3565	0	32836	
3566	0	32892	
3567	0	33040	
3568	0	33032	
3569	0	32984	
3570	0	32908	
3571	0	32808	
3572	0	32804	
3573	0	32816	
3574	0	32764	
3575	0	32736	
3576	0	32660	
3577	0	32744	
3578	0	32732	
3579	0	32704	
3580	0	32872	
3581	0	32868	
3582	0	32814	
3583	0	32764	
3584	0	32884	
3585	0	32964	
3586	0	32878	
3587	0	32832	
3588	0	32800	
3589	0	32800	
3590	0	32796	
3591	0	32698	
3592	0	32744	
3593	0	32804	
3594	0	32784	
3595	0	32752	
3596	0	32704	
3597	0	32700	
3598	0	32636	
3599	0	32564	
3600	0	32564	
3601	0	32728	
3602	0	32864	
3603	0	32759	
3604	0	32852	
3605	0	32908	
3606	0	32842	
3607	0	32916	
3608	0	32908	
3609	0	32830	
3610	0	32840	
3611	0	32924	
3612	0	32788	
3613	0	32852	
3614	0	32772	
3615	0	32592	
3616	0	32564	
3617	0	32636	
3618	0	32696	
3619	0	32670	
3620	0	32737	
3621	0	32692	
3622	0	32720	
3623	0	32490	
3624	0	32844	
3625	0	32884	
3626	0	32852	
3627	0	32984	
3628	0	32949	
3629	0	32916	
3630	0	33004	
3631	0	32880	
3632	0	32782	
3633	0	32760	
3634	0	32712	
3635	0	32708	
3636	0	32776	
3637	0	32809	
3638	0	32780	
3639	0	32596	
3640	0	32480	
3641	0	32704	
3642	0	32720	
3643	0	32664	
3644	0	32812	
3645	0	32840	
3646	0	32760	
3647	0	32968	
3648	0	32968	
3649	0	33004	
3650	0	32982	
3651	0	32948	
3652	0	32924	
3653	0	32725	
3654	0	32636	
3655	0	32480	
3656	0	32524	
3657	0	32544	
3658	0	32504	
3659	0	32798	
3660	0	32789	
3661	0	32836	
3662	0	32900	
3663	0	32772	
3664	0	32814	
3665	0	32864	
3666	0	32820	
3667	0	33004	
3668	0	33064	
3669	0	33054	
3670	0	32940	
3671	0	32633	
3672	0	32584	
3673	0	32704	
3674	0	32760	
3675	0	32808	
3676	0	32866	
3677	0	32648	
3678	0	32628	
3679	0	32738	
3680	0	32788	
3681	0	32669	
3682	0	32720	
3683	0	32794	
3684	0	32992	
3685	0	32868	
3686	0	32676	
3687	0	32892	
3688	0	32966	
3689	0	32880	
3690	0	32888	
3691	0	32728	
3692	0	32820	
3693	0	32868	
3694	0	32780	
3695	0	32548	
3696	0	32488	
3697	0	32548	
3698	0	32508	
3699	0	32636	
3700	0	32756	
3701	0	32956	
3702	0	33020	
3703	0	32948	
3704	0	32988	
3705	0	32936	
3706	0	32660	
3707	0	32788	
3708	0	32792	
3709	0	32924	
3710	0	32844	
3711	0	32796	
3712	0	32868	
3713	0	32684	
3714	0	32686	
3715	0	32576	
3716	0	32581	
3717	0	32576	
3718	0	32532	
3719	0	32712	
3720	0	32784	
3721	0	32924	
3722	0	32948	
3723	0	32960	
3724	0	32980	
3725	0	33064	
3726	0	32872	
3727	0	32972	
3728	0	32860	
3729	0	32621	
3730	0	32588	
3731	0	32644	
3732	0	32680	
3733	0	32712	
3734	0	32732	
3735	0	32712	
3736	0	32776	
3737	0	32740	
3738	0	32753	
3739	0	32732	
3740	0	32534	
3741	0	32504	
3742	0	32604	
3743	0	32760	
3744	0	32904	
3745	0	33004	
3746	0	32994	
3747	0	33046	
3748	0	32926	
3749	0	32976	
3750	0	32800	
3751	0	32824	
3752	0	32740	
3753	0	32804	
3754	0	32756	
3755	0	32709	
3756	0	32782	
3757	0	32772	
3758	0	32720	
3759	0	32720	
3760	0	32692	
3761	0	32824	
3762	0	32824	
3763	0	32681	
3764	0	32728	
3765	0	32820	
3766	0	32704	
3767	0	32784	
3768	0	32852	
3769	0	32772	
3770	0	32776	
3771	0	32768	
3772	0	32812	
3773	0	32708	
3774	0	32601	
3775	0	32692	
3776	0	32724	
3777	0	32736	
3778	0	32660	
3779	0	32792	
3780	0	32878	
3781	0	32820	
3782	0	32774	
3783	0	32720	
3784	0	32916	
3785	0	32928	
3786	0	32896	
3787	0	32949	
3788	0	32932	
3789	0	32768	
3790	0	32796	
3791	0	32840	
3792	0	32828	
3793	0	32836	
3794	0	32640	
3795	0	32641	
3796	0	32653	
3797	0	32775	
3798	0	32624	
3799	0	32632	
3800	0	32508	
3801	0	32648	
3802	0	32737	
3803	0	32865	
3804	0	33120	
3805	0	33128	
3806	0	32960	
3807	0	32984	
3808	0	32961	
3809	0	32776	
3810	0	32604	
3811	0	32684	
3812	0	32784	
3813	0	32720	
3814	0	32669	
3815	0	32624	
3816	0	32745	
3817	0	32712	
3818	0	32628	
3819	0	32628	
3820	0	32676	
3821	0	32684	
3822	0	32600	
3823	0	32700	
3824	0	32864	
3825	0	32940	
3826	0	32988	
3827	0	33109	
3828	0	32944	
3829	0	32928	
3830	0	33004	
3831	0	32996	
3832	0	32872	
3833	0	32704	
3834	0	32556	
3835	0	32660	
3836	0	32640	
3837	0	32608	
3838	0	32624	
3839	0	32772	
3840	0	32832	
3841	0	32824	
3842	0	32732	
3843	0	32544	
3844	0	32604	
3845	0	32784	
3846	0	32960	
3847	0	33044	
3848	0	32976	
3849	0	32912	
3850	0	32852	
3851	0	32764	
3852	0	32756	
3853	0	32768	
3854	0	32734	
3855	0	32672	
3856	0	32732	
3857	0	32760	
3858	0	32672	
3859	0	32716	
3860	0	32700	
3861	0	32760	
3862	0	32692	
3863	0	32608	
3864	0	32856	
3865	0	33068	
3866	0	33022	
3867	0	33024	
3868	0	32932	
3869	0	32828	
3870	0	32872	
3871	0	32688	
3872	0	32556	
3873	0	32608	
3874	0	32717	
3875	0	32720	
3876	0	32796	
3877	0	32728	
3878	0	32668	
3879	0	32644	
3880	0	32684	
3881	0	32766	
3882	0	32876	
3883	0	32788	
3884	0	32922	
3885	0	32973	
3886	0	32888	
3887	0	32960	
3888	0	32924	
3889	0	32844	
3890	0	32760	
3891	0	32732	
3892	0	32716	
3893	0	32749	
3894	0	32688	
3895	0	32645	
3896	0	32761	
3897	0	32716	
3898	0	32636	
3899	0	32704	
3900	0	32644	
3901	0	32796	
3902	0	32836	
3903	0	32832	
3904	0	32880	
3905	0	33004	
3906	0	33020	
3907	0	33040	
3908	0	32920	
3909	0	32654	
3910	0	32552	
3911	0	32766	
3912	0	32792	
3913	0	32732	
3914	0	32624	
3915	0	32528	
3916	0	32676	
3917	0	32780	
3918	0	32816	
3919	0	32916	
3920	0	32912	
3921	0	32820	
3922	0	32684	
3923	0	32636	
3924	0	32708	
3925	0	32760	
3926	0	32724	
3927	0	32888	
3928	0	32836	
3929	0	32932	
3930	0	32964	
3931	0	33040	
3932	0	33064	
3933	0	32888	
3934	0	32724	
3935	0	32688	
3936	0	32520	
3937	0	32495	
3938	0	32580	
3939	0	32673	
3940	0	32804	
3941	0	32860	
3942	0	32636	
3943	0	32720	
3944	0	32833	
3945	0	32920	
3946	0	32964	
3947	0	33080	
3948	0	32964	
3949	0	32661	
3950	0	32644	
3951	0	32744	
3952	0	32828	
3953	0	32758	
3954	0	32840	
3955	0	32628	
3956	0	32724	
3957	0	32700	
3958	0	32678	
3959	0	32652	
3960	0	32716	
3961	0	32700	
3962	0	32612	
3963	0	32798	
3964	0	32960	
3965	0	33054	
3966	0	33016	
3967	0	33024	
3968	0	32932	
3969	0	32918	
3970	0	32822	
3971	0	32716	
3972	0	32804	
3973	0	32753	
3974	0	32628	
3975	0	32708	
3976	0	32760	
3977	0	32628	
3978	0	32668	
3979	0	32676	
3980	0	32734	
3981	0	32800	
3982	0	32712	
3983	0	32788	
3984	0	32896	
3985	0	32960	
3986	0	32972	
3987	0	33084	
3988	0	33028	
3989	0	32744	
3990	0	32549	
3991	0	32648	
3992	0	32712	
3993	0	32808	
3994	0	32733	
3995	0	32748	
3996	0	32724	
3997	0	32556	
3998	0	32481	
3999	0	32529	
4000	0	32617	
4001	0	32750	
4002	0	32900	
4003	0	32940	
4004	0	33112	
4005	0	32972	
4006	0	32967	
4007	0	32944	
4008	0	32784	
4009	0	32729	
4010	0	32684	
4011	0	32676	
4012	0	32804	
4013	0	32724	
4014	0	32604	
4015	0	32596	
4016	0	32856	
4017	0	32856	
4018	0	32772	
4019	0	32732	
4020	0	32744	
4021	0	32724	
4022	0	32660	
4023	0	32708	
4024	0	32908	
4025	0	33008	
4026	0	33088	
4027	0	33168	
4028	0	32924	
4029	0	32676	
4030	0	32616	
4031	0	32652	
4032	0	32632	
4033	0	32688	
4034	0	32620	
4035	0	32552	
4036	0	32716	
4037	0	32688	
4038	0	32796	
4039	0	32772	
4040	0	32724	
4041	0	32608	
4042	0	32632	
4043	0	32832	
4044	0	33029	
4045	0	33024	
4046	0	32924	
4047	0	32928	
4048	0	32854	
4049	0	32844	
4050	0	32741	
4051	0	32784	
4052	0	32709	
4053	0	32786	
4054	0	32660	
4055	0	32778	
4056	0	32916	
4057	0	32740	
4058	0	32676	
4059	0	32648	
4060	0	32696	
4061	0	32718	
4062	0	32636	
4063	0	32788	
4064	0	32832	
4065	0	32828	
4066	0	32894	
4067	0	32964	
4068	0	32992	
4069	0	32976	
4070	0	32941	
4071	0	32892	
4072	0	32736	
4073	0	32580	
4074	0	32536	
4075	0	32628	
4076	0	32764	
4077	0	32568	
4078	0	32564	
4079	0	32640	
4080	0	32836	
4081	0	32893	
4082	0	32820	
4083	0	32861	
4084	0	32893	
4085	0	32964	
4086	0	33012	
4087	0	32988	
4088	0	32868	
4089	0	32840	
4090	0	32742	
4091	0	32716	
4092	0	32686	
4093	0	32692	
4094	0	32768	
4095	0	32712	
4096	0	32796	
4097	0	32704	
4098	0	32652	
4099	0	32700	
4100	0	32724	
4101	0	32716	
4102	0	32605	
4103	0	32704	
4104	0	32808	
4105	0	32900	
4106	0	32972	
4107	0	32920	
4108	0	33004	
4109	0	32961	
4110	0	32936	
4111	0	32928	
4112	0	32864	
4113	0	32760	
4114	0	32580	
4115	0	32622	
4116	0	32768	
4117	0	32804	
4118	0	32748	
4119	0	32684	
4120	0	32633	
4121	0	32692	
4122	0	32584	
4123	0	32824	
4124	0	32892	
4125	0	32788	
4126	0	32832	
4127	0	32808	
4128	0	32732	
4129	0	32832	
4130	0	32928	
4131	0	32940	
4132	0	32892	
4133	0	32880	
4134	0	32696	
4135	0	32576	
4136	0	32688	
4137	0	32424	
4138	0	32460	
4139	0	32514	
4140	0	32700	
4141	0	32808	
4142	0	32868	
4143	0	33061	
4144	0	33064	
4145	0	33056	
4146	0	33044	
4147	0	32948	
4148	0	32854	
4149	0	32817	
4150	0	32760	
4151	0	32704	
4152	0	32680	
4153	0	32832	
4154	0	32684	
4155	0	32644	
4156	0	32729	
4157	0	32560	
4158	0	32628	
4159	0	32644	
4160	0	32644	
4161	0	32692	
4162	0	32664	
4163	0	32852	
4164	0	32824	
4165	0	32896	
4166	0	32968	
4167	0	33078	
4168	0	33032	
4169	0	32864	
4170	0	32840	
4171	0	32760	
4172	0	32792	
4173	0	32808	
4174	0	32716	
4175	0	32628	
4176	0	32640	
4177	0	32636	
4178	0	32564	
4179	0	32728	
4180	0	32788	
4181	0	32772	
4182	0	32656	
4183	0	32976	
4184	0	33076	
4185	0	32908	
4186	0	32844	
4187	0	32921	
4188	0	32732	
4189	0	32640	
4190	0	32668	
4191	0	32846	
4192	0	32864	
4193	0	32920	
4194	0	32813	
4195	0	32684	
4196	0	32652	
4197	0	32496	
4198	0	32496	
4199	0	32692	
4200	0	32718	
4201	0	32692	
4202	0	32717	
4203	0	33013	
4204	0	32952	
4205	0	32816	
4206	0	32868	
4207	0	32908	
4208	0	32872	
4209	0	32876	
4210	0	32876	
4211	0	32932	
4212	0	32856	
4213	0	32704	
4214	0	32536	
4215	0	32684	
4216	0	32762	
4217	0	32528	
4218	0	32620	
4219	0	32692	
4220	0	32730	
4221	0	32804	
4222	0	32696	
4223	0	32784	
4224	0	32856	
4225	0	32940	
4226	0	33004	
4227	0	32964	
4228	0	32836	
4229	0	32752	
4230	0	32764	
4231	0	32764	
4232	0	32560	
4233	0	32700	
4234	0	32802	
4235	0	32900	
4236	0	32868	
4237	0	32688	
4238	0	32660	
4239	0	32660	
4240	0	32716	
4241	0	32868	
4242	0	32780	
4243	0	32824	
4244	0	32924	
4245	0	32928	
4246	0	32969	
4247	0	32750	
4248	0	32796	
4249	0	32828	
4250	0	32784	
4251	0	32876	
4252	0	32892	
4253	0	32648	
4254	0	32380	
4255	0	32480	
4256	0	32852	
4257	0	32741	
4258	0	32692	
4259	0	32784	
4260	0	32862	
4261	0	32972	
4262	0	32732	
4263	0	32588	
4264	0	32584	
4265	0	32584	
4266	0	32780	
4267	0	33013	
4268	0	33024	
4269	0	32916	
4270	0	32872	
4271	0	32860	
4272	0	32816	
4273	0	32848	
4274	0	32672	
4275	0	32608	
4276	0	32496	
4277	0	32490	
4278	0	32576	
4279	0	32702	
4280	0	32756	
4281	0	32972	
4282	0	33072	
4283	0	33116	
4284	0	33216	
4285	0	33028	
4286	0	32867	
4287	0	32792	
4288	0	32756	
4289	0	32792	
4290	0	32920	
4291	0	32813	
4292	0	32636	
4293	0	32576	
4294	0	32552	
4295	0	32704	
4296	0	32772	
4297	0	32756	
4298	0	32692	
4299	0	32840	
4300	0	32728	
4301	0	32620	
4302	0	32520	
4303	0	32668	
4304	0	32797	
4305	0	32940	
4306	0	32944	
4307	0	32917	
4308	0	32832	
4309	0	32732	
4310	0	32717	
4311	0	32780	
4312	0	32808	
4313	0	32812	
4314	0	32884	
4315	0	32832	
4316	0	32744	
4317	0	32612	
4318	0	32592	
4319	0	32760	
4320	0	32788	
4321	0	32864	
4322	0	32728	
4323	0	32784	
4324	0	32760	
4325	0	32840	
4326	0	32988	
4327	0	32977	
4328	0	32804	
4329	0	32724	
4330	0	32716	
4331	0	32760	
4332	0	32872	
4333	0	32956	
4334	0	32752	
4335	0	32768	
4336	0	32761	
4337	0	32552	
4338	0	32528	
4339	0	32468	
4340	0	32644	
4341	0	32740	
4342	0	32812	
4343	0	32832	
4344	0	32940	
4345	0	32933	
4346	0	32992	
4347	0	33096	
4348	0	32865	
4349	0	32664	
4350	0	32624	
4351	0	32800	
4352	0	32860	
4353	0	32804	
4354	0	32708	
4355	0	32612	
4356	0	32760	
4357	0	32652	
4358	0	32632	
4359	0	32640	
4360	0	32688	
4361	0	32752	
4362	0	32684	
4363	0	32870	
4364	0	32908	
4365	0	32926	
4366	0	33144	
4367	0	33150	
4368	0	33172	
4369	0	33108	
4370	0	32804	
4371	0	32616	
4372	0	32576	
4373	0	32556	
4374	0	32616	
4375	0	32608	
4376	0	32700	
4377	0	32684	
4378	0	32728	
4379	0	32704	
4380	0	32537	
4381	0	32714	
4382	0	32744	
4383	0	33089	
4384	0	33176	
4385	0	32992	
4386	0	33006	
4387	0	32822	
4388	0	32700	
4389	0	32700	
4390	0	32772	
4391	0	32768	
4392	0	32816	
4393	0	32751	
4394	0	32640	
4395	0	32604	
4396	0	32624	
4397	0	32472	
4398	0	32462	
4399	0	32677	
4400	0	32828	
4401	0	32928	
4402	0	32884	
4403	0	33000	
4404	0	33088	
4405	0	32932	
4406	0	32988	
4407	0	32936	
4408	0	32788	
4409	0	32736	
4410	0	32796	
4411	0	32780	
4412	0	32728	
4413	0	32618	
4414	0	32576	
4415	0	32604	
4416	0	32684	
4417	0	32804	
4418	0	32748	
4419	0	32812	
4420	0	32809	
4421	0	32876	
4422	0	32740	
4423	0	32928	
4424	0	32832	
4425	0	32776	
4426	0	32842	
4427	0	32812	
4428	0	32736	
4429	0	32772	
4430	0	32724	
4431	0	32808	
4432	0	32900	
4433	0	32700	
4434	0	32761	
4435	0	32868	
4436	0	32852	
4437	0	32548	
4438	0	32392	
4439	0	32553	
4440	0	32792	
4441	0	32884	
4442	0	32716	
4443	0	32900	
4444	0	33165	
4445	0	33048	
4446	0	33020	
4447	0	32916	
4448	0	32820	
4449	0	32676	
4450	0	32580	
4451	0	32580	
4452	0	32692	
4453	0	32692	
4454	0	32709	
4455	0	32652	
4456	0	32756	
4457	0	32636	
4458	0	32797	
4459	0	32832	
4460	0	32860	
4461	0	32704	
4462	0	32644	
4463	0	32784	
4464	0	32900	
4465	0	32936	
4466	0	32960	
4467	0	32964	
4468	0	32992	
4469	0	32884	
4470	0	32792	
4471	0	32708	
4472	0	32740	
4473	0	32708	
4474	0	32654	
4475	0	32740	
4476	0	32760	
4477	0	32576	
4478	0	32604	
4479	0	32544	
4480	0	32740	
4481	0	32854	
4482	0	32760	
4483	0	32944	
4484	0	33020	
4485	0	33020	
4486	0	33040	
4487	0	33004	
4488	0	32832	
4489	0	32820	
4490	0	32700	
4491	0	32708	
4492	0	32756	
4493	0	32624	
4494	0	32617	
4495	0	32601	
4496	0	32637	
4497	0	32661	
4498	0	32620	
4499	0	32596	
4500	0	32624	
4501	0	32816	
4502	0	32628	
4503	0	32782	
4504	0	32920	
4505	0	32876	
4506	0	33084	
4507	0	33000	
4508	0	32964	
4509	0	32868	
4510	0	32800	
4511	0	32800	
4512	0	32774	
4513	0	32784	
4514	0	32681	
4515	0	32720	
4516	0	32796	
4517	0	32768	
4518	0	32804	
4519	0	32716	
4520	0	32693	
4521	0	32544	
4522	0	32677	
4523	0	32868	
4524	0	32856	
4525	0	32764	
4526	0	32944	
4527	0	32924	
4528	0	32792	
4529	0	32860	
4530	0	32852	
4531	0	32829	
4532	0	32708	
4533	0	32740	
4534	0	32688	
4535	0	32780	
4536	0	32712	
4537	0	32568	
4538	0	32572	
4539	0	32620	
4540	0	32672	
4541	0	32676	
4542	0	32753	
4543	0	32960	
4544	0	32940	
4545	0	32902	
4546	0	33004	
4547	0	32966	
4548	0	32880	
4549	0	32826	
4550	0	32671	
4551	0	32648	
4552	0	32712	
4553	0	32764	
4554	0	32914	
4555	0	33012	
4556	0	32870	
4557	0	32780	
4558	0	32732	
4559	0	32661	
4560	0	32644	
4561	0	32608	
4562	0	32568	
4563	0	32692	
4564	0	32892	
4565	0	32800	
4566	0	32964	
4567	0	32782	
4568	0	32796	
4569	0	32788	
4570	0	32772	
4571	0	32772	
4572	0	32780	
4573	0	32746	
4574	0	32716	
4575	0	32732	
4576	0	32732	
4577	0	32676	
4578	0	32778	
4579	0	32708	
4580	0	32764	
4581	0	32696	
4582	0	32648	
4583	0	32816	
4584	0	32868	
4585	0	32738	
4586	0	32868	
4587	0	32844	
4588	0	32814	
4589	0	32869	
4590	0	32780	
4591	0	32756	
4592	0	32850	
4593	0	32860	
4594	0	32800	
4595	0	32808	
4596	0	32808	
4597	0	32712	
4598	0	32536	
4599	0	32526	
4600	0	32712	
4601	0	32948	
4602	0	32901	
4603	0	32816	
4604	0	32736	
4605	0	32724	
4606	0	32860	
4607	0	32924	
4608	0	32903	
4609	0	32806	
4610	0	32772	
4611	0	32700	
4612	0	32648	
4613	0	32676	
4614	0	32816	
4615	0	32751	
4616	0	32740	
4617	0	32628	
4618	0	32756	
4619	0	32668	
4620	0	32734	
4621	0	32816	
4622	0	32832	
4623	0	32856	
4624	0	32831	
4625	0	32704	
4626	0	32848	
4627	0	32906	
4628	0	32976	
4629	0	33016	
4630	0	32936	
4631	0	32829	
4632	0	32780	
4633	0	32673	
4634	0	32692	
4635	0	32668	
4636	0	32640	
4637	0	32560	
4638	0	32608	
4639	0	32712	
4640	0	32816	
4641	0	32832	
4642	0	32712	
4643	0	33064	
4644	0	33124	
4645	0	32784	
4646	0	32852	
4647	0	32844	
4648	0	32833	
4649	0	32764	
4650	0	32748	
4651	0	32736	
4652	0	32724	
4653	0	32708	
4654	0	32644	
4655	0	32788	
4656	0	32800	
4657	0	32552	
4658	0	32572	
4659	0	32704	
4660	0	32832	
4661	0	32842	
4662	0	32828	
4663	0	33024	
4664	0	33004	
4665	0	33064	
4666	0	33124	
4667	0	32864	
4668	0	32748	
4669	0	32704	
4670	0	32672	
4671	0	32496	
4672	0	32600	
4673	0	32708	
4674	0	32724	
4675	0	32756	
4676	0	32672	
4677	0	32676	
4678	0	32828	
4679	0	32636	
4680	0	32512	
4681	0	32336	
4682	0	32584	
4683	0	32952	
4684	0	33256	
4685	0	33246	
4686	0	33260	
4687	0	33064	
4688	0	32796	
4689	0	32764	
4690	0	32794	
4691	0	32764	
4692	0	32724	
4693	0	32712	
4694	0	32612	
4695	0	32596	
4696	0	32736	
4697	0	32568	
4698	0	32652	
4699	0	32660	
4700	0	32784	
4701	0	32793	
4702	0	32775	
4703	0	32820	
4704	0	32920	
4705	0	32956	
4706	0	33036	
4707	0	32960	
4708	0	32820	
4709	0	32780	
4710	0	32724	
4711	0	32768	
4712	0	32832	
4713	0	32796	
4714	0	32680	
4715	0	32777	
4716	0	32780	
4717	0	32672	
4718	0	32676	
4719	0	32583	
4720	0	32644	
4721	0	32673	
4722	0	32648	
4723	0	32804	
4724	0	32880	
4725	0	33060	
4726	0	33156	
4727	0	33040	
4728	0	32808	
4729	0	32710	
4730	0	32700	
4731	0	32736	
4732	0	32904	
4733	0	32864	
4734	0	32804	
4735	0	32832	
4736	0	32676	
4737	0	32580	
4738	0	32588	
4739	0	32462	
4740	0	32613	
4741	0	32765	
4742	0	32932	
4743	0	32982	
4744	0	32884	
4745	0	32808	
4746	0	32924	
4747	0	32840	
4748	0	32833	
4749	0	32800	
4750	0	32812	
4751	0	32957	
4752	0	32932	
4753	0	32864	
4754	0	32744	
4755	0	32720	
4756	0	32568	
4757	0	32456	
4758	0	32348	
4759	0	32552	
4760	0	32624	
4761	0	32681	
4762	0	32997	
4763	0	33284	
4764	0	33244	
4765	0	32988	
4766	0	33004	
4767	0	32940	
4768	0	32852	
4769	0	32776	
4770	0	32768	
4771	0	32566	
4772	0	32536	
4773	0	32512	
4774	0	32564	
4775	0	32848	
4776	0	32748	
4777	0	32540	
4778	0	32637	
4779	0	32856	
4780	0	32868	
4781	0	32745	
4782	0	33016	
4783	0	33004	
4784	0	32976	
4785	0	32864	
4786	0	32928	
4787	0	32804	
4788	0	32724	
4789	0	32656	
4790	0	32648	
4791	0	32716	
4792	0	32720	
4793	0	32800	
4794	0	32768	
4795	0	32776	
4796	0	32668	
4797	0	32669	
4798	0	32688	
4799	0	32744	
4800	0	32780	
4801	0	32760	
4802	0	32832	
4803	0	32961	
4804	0	32884	
4805	0	32840	
4806	0	32900	
4807	0	32780	
4808	0	32756	
4809	0	32876	
4810	0	32892	
4811	0	32920	
4812	0	32804	
4813	0	32792	
4814	0	32740	
4815	0	32752	
4816	0	32544	
4817	0	32492	
4818	0	32552	
4819	0	32704	
4820	0	32844	
4821	0	32832	
4822	0	32904	
4823	0	33089	
4824	0	32844	
4825	0	32804	
4826	0	32992	
4827	0	32944	
4828	0	32726	
4829	0	32732	
4830	0	32820	
4831	0	32784	
4832	0	32824	
4833	0	32752	
4834	0	32684	
4835	0	32784	
4836	0	32692	
4837	0	32722	
4838	0	32644	
4839	0	32521	
4840	0	32528	
4841	0	32672	
4842	0	32732	
4843	0	32868	
4844	0	33053	
4845	0	33204	
4846	0	33260	
4847	0	33072	
4848	0	32732	
4849	0	32672	
4850	0	32740	
4851	0	32580	
4852	0	32592	
4853	0	32672	
4854	0	32672	
4855	0	32784	
4856	0	32688	
4857	0	32584	
4858	0	32652	
4859	0	32632	
4860	0	32776	
4861	0	32712	
4862	0	32812	
4863	0	32938	
4864	0	32964	
4865	0	32941	
4866	0	33028	
4867	0	32964	
4868	0	32900	
4869	0	32756	
4870	0	32800	
4871	0	32728	
4872	0	32724	
4873	0	32732	
4874	0	32768	
4875	0	32876	
4876	0	32720	
4877	0	32709	
4878	0	32708	
4879	0	32552	
4880	0	32388	
4881	0	32486	
4882	0	32652	
4883	0	32848	
4884	0	32960	
4885	0	32884	
4886	0	32828	
4887	0	32816	
4888	0	32832	
4889	0	32909	
4890	0	32852	
4891	0	32908	
4892	0	32916	
4893	0	32972	
4894	0	32808	
4895	0	32832	
4896	0	32668	
4897	0	32644	
4898	0	32528	
4899	0	32589	
4900	0	32612	
4901	0	32676	
4902	0	32869	
4903	0	32964	
4904	0	32988	
4905	0	32928	
4906	0	32926	
4907	0	32740	
4908	0	32768	
4909	0	32832	
4910	0	32752	
4911	0	32677	
4912	0	32780	
4913	0	32684	
4914	0	32692	
4915	0	32852	
4916	0	32756	
4917	0	32570	
4918	0	32565	
4919	0	32632	
4920	0	32768	
4921	0	32908	
4922	0	32804	
4923	0	32928	
4924	0	33100	
4925	0	32918	
4926	0	33036	
4927	0	32980	
4928	0	32828	
4929	0	32696	
4930	0	32687	
4931	0	32668	
4932	0	32692	
4933	0	32628	
4934	0	32632	
4935	0	32716	
4936	0	32540	
4937	0	32536	
4938	0	32696	
4939	0	32783	
4940	0	32772	
4941	0	32748	
4942	0	32752	
4943	0	32909	
4944	0	32968	
4945	0	33116	
4946	0	33092	
4947	0	32968	
4948	0	32780	
4949	0	32660	
4950	0	32696	
4951	0	32708	
4952	0	32776	
4953	0	32746	
4954	0	32688	
4955	0	32748	
4956	0	32700	
4957	0	32620	
4958	0	32710	
4959	0	32684	
4960	0	32592	
4961	0	32632	
4962	0	32816	
4963	0	33060	
4964	0	33000	
4965	0	32864	
4966	0	32864	
4967	0	32724	
4968	0	32580	
4969	0	32576	
4970	0	32716	
4971	0	32653	
4972	0	32748	
4973	0	32804	
4974	0	32828	
4975	0	32900	
4976	0	32840	
4977	0	32876	
4978	0	32916	
4979	0	32868	
4980	0	32900	
4981	0	32784	
4982	0	32836	
4983	0	32952	
4984	0	32924	
4985	0	32862	
4986	0	32900	
4987	0	32872	
4988	0	32773	
4989	0	32768	
4990	0	32700	
4991	0	32744	
4992	0	32612	
4993	0	32648	
4994	0	32688	
4995	0	32652	
4996	0	32580	
4997	0	32664	
4998	0	32732	
4999	0	32792	
5000	0	32853	
5001	0	32816	
5002	0	32856	
5003	0	32732	
5004	0	32653	
5005	0	32788	
5006	0	32836	
5007	0	32820	
5008	0	32852	
5009	0	32896	
5010	0	32794	
5011	0	32876	
5012	0	32768	
5013	0	32732	
5014	0	32652	
5015	0	32768	
5016	0	32732	
5017	0	32736	
5018	0	32725	
5019	0	32808	
5020	0	32834	
5021	0	32724	
5022	0	32721	
5023	0	32780	
5024	0	32900	
5025	0	32892	
5026	0	32796	
5027	0	32648	
5028	0	32672	
5029	0	32841	
5030	0	32903	
5031	0	32950	
5032	0	32961	
5033	0	32857	
5034	0	32872	
5035	0	32933	
5036	0	32802	
5037	0	32620	
5038	0	32572	
5039	0	32424	
5040	0	32592	
5041	0	32624	
5042	0	32804	
5043	0	32896	
5044	0	32889	
5045	0	32686	
5046	0	32840	
5047	0	32936	
5048	0	32990	
5049	0	32772	
5050	0	32596	
5051	0	32696	
5052	0	32770	
5053	0	32764	
5054	0	32848	
5055	0	32868	
5056	0	32632	
5057	0	32508	
5058	0	32648	
5059	0	32744	
5060	0	32896	
5061	0	32832	
5062	0	32992	
5063	0	32912	
5064	0	32820	
5065	0	32836	
5066	0	32832	
5067	0	32852	
5068	0	32892	
5069	0	32900	
5070	0	32736	
5071	0	32764	
5072	0	32956	
5073	0	32828	
5074	0	32792	
5075	0	32776	
5076	0	32652	
5077	0	32568	
5078	0	32527	
5079	0	32660	
5080	0	32728	
5081	0	32724	
5082	0	32820	
5083	0	32920	
5084	0	32936	
5085	0	32884	
5086	0	32952	
5087	0	32916	
5088	0	32848	
5089	0	32804	
5090	0	32700	
5091	0	32716	
5092	0	32624	
5093	0	32616	
5094	0	32628	
5095	0	32620	
5096	0	32608	
5097	0	32728	
5098	0	32832	
5099	0	32991	
5100	0	32880	
5101	0	32764	
5102	0	32805	
5103	0	32996	
5104	0	33036	
5105	0	33060	
5106	0	32888	
5107	0	32724	
5108	0	32696	
5109	0	32724	
5110	0	32688	
5111	0	32700	
5112	0	32680	
5113	0	32668	
5114	0	32724	
5115	0	32720	
5116	0	32568	
5117	0	32677	
5118	0	32828	
5119	0	32964	
5120	0	32966	
5121	0	32896	
5122	0	32928	
5123	0	33028	
5124	0	33052	
5125	0	32820	
5126	0	32745	
5127	0	32768	
5128	0	32580	
5129	0	32532	
5130	0	32616	
5131	0	32708	
5132	0	32696	
5133	0	32716	
5134	0	32708	
5135	0	32724	
5136	0	32622	
5137	0	32704	
5138	0	32772	
5139	0	32828	
5140	0	32860	
5141	0	32804	
5142	0	32868	
5143	0	32984	
5144	0	33068	
5145	0	33036	
5146	0	33044	
5147	0	32878	
5148	0	32788	
5149	0	32656	
5150	0	32696	
5151	0	32742	
5152	0	32748	
5153	0	32581	
5154	0	32608	
5155	0	32765	
5156	0	32704	
5157	0	32645	
5158	0	32749	
5159	0	32720	
5160	0	32752	
5161	0	32636	
5162	0	32716	
5163	0	32852	
5164	0	32944	
5165	0	32928	
5166	0	32912	
5167	0	32860	
5168	0	32952	
5169	0	32936	
5170	0	32796	
5171	0	32848	
5172	0	32708	
5173	0	32740	
5174	0	32692	
5175	0	32732	
5176	0	32732	
5177	0	32668	
5178	0	32628	
5179	0	32628	
5180	0	32660	
5181	0	32540	
5182	0	32748	
5183	0	32940	
5184	0	32852	
5185	0	32928	
5186	0	33045	
5187	0	32960	
5188	0	32890	
5189	0	32816	
5190	0	32756	
5191	0	32768	
5192	0	32732	
5193	0	32632	
5194	0	32613	
5195	0	32708	
5196	0	32588	
5197	0	32604	
5198	0	32632	
5199	0	32764	
5200	0	32868	
5201	0	32848	
5202	0	32952	
5203	0	33048	
5204	0	32980	
5205	0	32954	
5206	0	32892	
5207	0	32904	
5208	0	32776	
5209	0	32764	
5210	0	32696	
5211	0	32704	
5212	0	32597	
5213	0	32592	
5214	0	32644	
5215	0	32724	
5216	0	32588	
5217	0	32636	
5218	0	32701	
5219	0	32772	
5220	0	32837	
5221	0	32776	
5222	0	32860	
5223	0	32916	
5224	0	32900	
5225	0	32905	
5226	0	32944	
5227	0	32996	
5228	0	32812	
5229	0	32324	
5230	0	32358	
5231	0	32200	
5232	0	32216	
5233	0	32364	
5234	0	32352	
5235	0	32312	
5236	0	32496	
5237	0	32988	
5238	0	33304	
5239	0	33239	
5240	0	33272	
5241	0	33292	
5242	0	33420	
5243	0	33572	
5244	0	33452	
5245	0	33428	
5246	0	33248	
5247	0	32796	
5248	0	32580	
5249	0	31904	
5250	0	31408	
5251	0	31592	
5252	0	31712	
5253	0	31293	
5254	0	31116	
5255	0	31044	
5256	0	31486	
5257	0	32572	
5258	0	33580	
5259	0	34392	
5260	0	34948	
5261	0	35112	
5262	0	35168	
5263	0	35136	
5264	0	35120	
5265	0	34880	
5266	0	34348	
5267	0	32556	
5268	0	30084	
5269	0	29332	
5270	0	29200	
5271	0	29445	
5272	0	29820	
5273	0	30876	
5274	0	31900	
5275	0	32764	
5276	0	33576	
5277	0	34376	
5278	0	35216	
5279	0	35816	
5280	0	36660	
5281	0	36936	
5282	0	36980	
5283	0	36680	
5284	0	35820	
5285	0	34596	
5286	0	33640	
5287	0	32229	
5288	0	30816	
5289	0	29644	
5290	0	27752	
5291	0	25422	
5292	0	25284	
5293	0	25732	
5294	0	23872	
5295	0	24548	
5296	0	26076	
5297	0	28357	
5298	0	31481	
5299	0	34880	
5300	0	37815	
5301	0	39904	
5302	0	41464	
5303	0	42488	
5304	0	42660	
5305	0	42238	
5306	0	41168	
5307	0	39956	
5308	0	36724	
5309	0	33932	
5310	0	30292	
5311	0	24388	
5312	0	22488	
5313	0	23244	
5314	0	23157	
5315	0	24136	
5316	0	26772	
5317	0	30400	
5318	0	33864	
5319	0	36360	
5320	0	37976	
5321	0	39404	
5322	0	40764	
5323	0	41920	
5324	0	41696	
5325	0	40860	
5326	0	38788	
5327	0	36544	
5328	0	34152	
5329	0	32552	
5330	0	30704	
5331	0	26504	
5332	0	20896	
5333	0	14402	
5334	0	11676	
5335	0	16670	
5336	0	22020	
5337	0	26846	
5338	0	31736	
5339	0	37824	
5340	0	43636	
5341	0	47040	
5342	0	49376	
5343	0	49712	
5344	0	48536	
5345	0	46437	
5346	0	43596	
5347	0	40600	
5348	0	37084	
5349	0	33084	
5350	0	30009	
5351	0	27268	
5352	0	26285	
5353	0	26416	
5354	0	25736	
5355	0	24365	
5356	0	24704	
5357	0	26412	
5358	0	26142	
5359	0	25692	
5360	0	26996	
5361	0	27956	
5362	0	29956	
5363	0	31764	
5364	0	33608	
5365	0	34764	
5366	0	34752	
5367	0	34892	
5368	0	36060	
5369	0	37444	
5370	0	37496	
5371	0	36432	
5372	0	35569	
5373	0	35086	
5374	0	35288	
5375	0	35108	
5376	0	34100	
5377	0	32400	
5378	0	30276	
5379	0	27044	
5380	0	25964	
5381	0	25332	
5382	0	24561	
5383	0	26585	
5384	0	30501	
5385	0	33940	
5386	0	36044	
5387	0	36993	
5388	0	38064	
5389	0	38904	
5390	0	39116	
5391	0	39376	
5392	0	39168	
5393	0	38984	
5394	0	36260	
5395	0	32165	
5396	0	29332	
5397	0	24764	
5398	0	22636	
5399	0	22836	
5400	0	22780	
5401	0	25684	
5402	0	30404	
5403	0	33524	
5404	0	35712	
5405	0	37848	
5406	0	38840	
5407	0	39896	
5408	0	41112	
5409	0	41712	
5410	0	41552	
5411	0	40144	
5412	0	37256	
5413	0	35536	
5414	0	34656	
5415	0	32936	
5416	0	31432	
5417	0	30540	
5418	0	29076	
5419	0	27532	
5420	0	25924	
5421	0	23641	
5422	0	20000	
5423	0	18969	
5424	0	22266	
5425	0	27108	
5426	0	31788	
5427	0	35492	
5428	0	38616	
5429	0	40928	
5430	0	42348	
5431	0	42892	
5432	0	42476	
5433	0	41288	
5434	0	39804	
5435	0	37616	
5436	0	35224	
5437	0	32928	
5438	0	30784	
5439	0	30190	
5440	0	29840	
5441	0	30552	
5442	0	30020	
5443	0	29661	
5444	0	28964	
5445	0	26669	
5446	0	26204	
5447	0	27760	
5448	0	28278	
5449	0	29596	
5450	0	30752	
5451	0	32111	
5452	0	33948	
5453	0	35516	
5454	0	36172	
5455	0	35996	
5456	0	35493	
5457	0	35552	
5458	0	34564	
5459	0	32760	
5460	0	31332	
5461	0	30220	
5462	0	30156	
5463	0	29324	
5464	0	27124	
5465	0	28136	
5466	0	30144	
5467	0	32784	
5468	0	34940	
5469	0	36772	
5470	0	38040	
5471	0	38348	
5472	0	38581	
5473	0	37689	
5474	0	36620	
5475	0	36127	
5476	0	33572	
5477	0	30926	
5478	0	31628	
5479	0	32024	
5480	0	32804	
5481	0	33356	
5482	0	33364	
5483	0	33212	
5484	0	32252	
5485	0	31809	
5486	0	30774	
5487	0	28560	
5488	0	28900	
5489	0	29752	
5490	0	29932	
5491	0	29952	
5492	0	30813	
5493	0	32204	
5494	0	33464	
5495	0	34952	
5496	0	36040	
5497	0	36196	
5498	0	35468	
5499	0	35680	
5500	0	35636	
5501	0	34590	
5502	0	32964	
5503	0	32300	
5504	0	32184	
5505	0	32468	
5506	0	31744	
5507	0	30484	
5508	0	30016	
5509	0	29928	
5510	0	29776	
5511	0	28852	
5512	0	26984	
5513	0	26380	
5514	0	26734	
5515	0	29101	
5516	0	32156	
5517	0	33973	
5518	0	34996	
5519	0	36576	
5520	0	37928	
5521	0	39692	
5522	0	40688	
5523	0	39820	
5524	0	39296	
5525	0	38980	
5526	0	38862	
5527	0	37252	
5528	0	34740	
5529	0	33324	
5530	0	32456	
5531	0	31452	
5532	0	29476	
5533	0	29476	
5534	0	29796	
5535	0	30048	
5536	0	30792	
5537	0	31725	
5538	0	32292	
5539	0	31188	
5540	0	30084	
5541	0	29288	
5542	0	29376	
5543	0	28608	
5544	0	28968	
5545	0	30116	
5546	0	31160	
5547	0	32608	
5548	0	34012	
5549	0	34384	
5550	0	34692	
5551	0	35437	
5552	0	35569	
5553	0	35552	
5554	0	34768	
5555	0	33776	
5556	0	33896	
5557	0	33392	
5558	0	32248	
5559	0	31916	
5560	0	31988	
5561	0	32006	
5562	0	32108	
5563	0	32144	
5564	0	32001	
5565	0	32332	
5566	0	32484	
5567	0	32388	
5568	0	32132	
5569	0	32124	
5570	0	32324	
5571	0	32536	
5572	0	32532	
5573	0	32692	
5574	0	32804	
5575	0	32660	
5576	0	32468	
5577	0	32240	
5578	0	32252	
5579	0	32016	
5580	0	31372	
5581	0	31180	
5582	0	31952	
5583	0	33020	
5584	0	33732	
5585	0	34297	
5586	0	34464	
5587	0	34581	
5588	0	34412	
5589	0	34380	
5590	0	34317	
5591	0	33908	
5592	0	33836	
5593	0	33924	
5594	0	33592	
5595	0	32896	
5596	0	32174	
5597	0	32160	
5598	0	31728	
5599	0	31220	
5600	0	31076	
5601	0	31628	
5602	0	32280	
5603	0	32756	
5604	0	32820	
5605	0	32540	
5606	0	32224	
5607	0	32332	
5608	0	32356	
5609	0	32560	
5610	0	32905	
5611	0	33188	
5612	0	33556	
5613	0	32864	
5614	0	32584	
5615	0	32692	
5616	0	32520	
5617	0	32372	
5618	0	32269	
5619	0	32364	
5620	0	32652	
5621	0	32652	
5622	0	32300	
5623	0	31801	
5624	0	31261	
5625	0	30800	
5626	0	29749	
5627	0	30076	
5628	0	30804	
5629	0	31988	
5630	0	33838	
5631	0	34464	
5632	0	35780	
5633	0	35624	
5634	0	35605	
5635	0	36012	
5636	0	36472	
5637	0	36824	
5638	0	36444	
5639	0	35878	
5640	0	35560	
5641	0	34596	
5642	0	32936	
5643	0	32405	
5644	0	32780	
5645	0	33124	
5646	0	32592	
5647	0	30532	
5648	0	29660	
5649	0	29304	
5650	0	29645	
5651	0	29256	
5652	0	29868	
5653	0	31260	
5654	0	32816	
5655	0	33824	
5656	0	34254	
5657	0	33764	
5658	0	33582	
5659	0	34092	
5660	0	34276	
5661	0	33976	
5662	0	33488	
5663	0	32820	
5664	0	32445	
5665	0	32492	
5666	0	32044	
5667	0	31626	
5668	0	31856	
5669	0	31916	
5670	0	31896	
5671	0	32224	
5672	0	32368	
5673	0	32372	
5674	0	32356	
5675	0	32192	
5676	0	31952	
5677	0	32092	
5678	0	32542	
5679	0	32892	
5680	0	33206	
5681	0	33480	
5682	0	33816	
5683	0	33072	
5684	0	32276	
5685	0	32433	
5686	0	32328	
5687	0	32064	
5688	0	32348	
5689	0	32876	
5690	0	32869	
5691	0	32960	
5692	0	32956	
5693	0	32840	
5694	0	32916	
5695	0	33069	
5696	0	32925	
5697	0	32736	
5698	0	32812	
5699	0	32880	
5700	0	32748	
5701	0	32732	
5702	0	32940	
5703	0	32748	
5704	0	31576	
5705	0	31296	
5706	0	31798	
5707	0	32057	
5708	0	31757	
5709	0	32128	
5710	0	32676	
5711	0	33328	
5712	0	33524	
5713	0	32776	
5714	0	32556	
5715	0	33312	
5716	0	33708	
5717	0	34132	
5718	0	34340	
5719	0	33988	
5720	0	32840	
5721	0	33414	
5722	0	34380	
5723	0	34688	
5724	0	34692	
5725	0	34940	
5726	0	34556	
5727	0	34348	
5728	0	34233	
5729	0	33620	
5730	0	32927	
5731	0	32388	
5732	0	31792	
5733	0	31328	
5734	0	30656	
5735	0	30680	
5736	0	30984	
5737	0	30940	
5738	0	31408	
5739	0	31912	
5740	0	32276	
5741	0	32596	
5742	0	32921	
5743	0	33096	
5744	0	33380	
5745	0	33652	
5746	0	33464	
5747	0	32972	
5748	0	32552	
5749	0	32468	
5750	0	32412	
5751	0	32546	
5752	0	32524	
5753	0	32380	
5754	0	32536	
5755	0	32493	
5756	0	32460	
5757	0	32554	
5758	0	32656	
5759	0	32836	
5760	0	32908	
5761	0	33136	
5762	0	33188	
5763	0	33076	
5764	0	33148	
5765	0	32952	
5766	0	32624	
5767	0	32600	
5768	0	32744	
5769	0	32744	
5770	0	32648	
5771	0	32660	
5772	0	32760	
5773	0	32620	
5774	0	32540	
5775	0	32493	
5776	0	32438	
5777	0	32636	
5778	0	32676	
5779	0	32640	
5780	0	32848	
5781	0	32944	
5782	0	33144	
5783	0	33206	
5784	0	33084	
5785	0	33088	
5786	0	32948	
5787	0	32616	
5788	0	32615	
5789	0	32704	
5790	0	32532	
5791	0	32180	
5792	0	31144	
5793	0	29888	
5794	0	29788	
5795	0	30436	
5796	0	31418	
5797	0	32302	
5798	0	32940	
5799	0	33469	
5800	0	34132	
5801	0	34868	
5802	0	35524	
5803	0	35312	
5804	0	34152	
5805	0	34664	
5806	0	35040	
5807	0	35028	
5808	0	35040	
5809	0	34488	
5810	0	33725	
5811	0	33240	
5812	0	33472	
5813	0	33632	
5814	0	33156	
5815	0	32332	
5816	0	31516	
5817	0	31416	
5818	0	30276	
5819	0	29740	
5820	0	30136	
5821	0	31077	
5822	0	32236	
5823	0	32832	
5824	0	33248	
5825	0	33684	
5826	0	34004	
5827	0	34166	
5828	0	33972	
5829	0	33604	
5830	0	33568	
5831	0	33276	
5832	0	32892	
5833	0	32724	
5834	0	32384	
5835	0	31924	
5836	0	31680	
5837	0	31792	
5838	0	31844	
5839	0	31876	
5840	0	31832	
5841	0	32052	
5842	0	32500	
5843	0	32749	
5844	0	32856	
5845	0	33008	
5846	0	32916	
5847	0	32736	
5848	0	32720	
5849	0	32904	
5850	0	32908	
5851	0	32788	
5852	0	32736	
5853	0	32740	
5854	0	32648	
5855	0	32560	
5856	0	32560	
5857	0	32724	
5858	0	32836	
5859	0	32936	
5860	0	32712	
5861	0	32752	
5862	0	32804	
5863	0	32800	
5864	0	33004	
5865	0	33192	
5866	0	32916	
5867	0	32681	
5868	0	32868	
5869	0	32996	
5870	0	32844	
5871	0	32789	
5872	0	32860	
5873	0	32728	
5874	0	32664	
5875	0	32636	
5876	0	32620	
5877	0	32708	
5878	0	32676	
5879	0	32844	
5880	0	32892	
5881	0	32844	
5882	0	32840	
5883	0	32932	
5884	0	32880	
5885	0	32865	
5886	0	32916	
5887	0	32816	
5888	0	32712	
5889	0	31676	
5890	0	30432	
5891	0	30588	
5892	0	30745	
5893	0	31129	
5894	0	31784	
5895	0	32700	
5896	0	33630	
5897	0	34072	
5898	0	34744	
5899	0	35328	
5900	0	35468	
5901	0	35936	
5902	0	36044	
5903	0	35852	
5904	0	35372	
5905	0	34304	
5906	0	33068	
5907	0	31998	
5908	0	31456	
5909	0	31504	
5910	0	31432	
5911	0	31412	
5912	0	31076	
5913	0	30952	
5914	0	31240	
5915	0	31416	
5916	0	31904	
5917	0	32292	
5918	0	32648	
5919	0	32900	
5920	0	33004	
5921	0	33396	
5922	0	33240	
5923	0	33046	
5924	0	33100	
5925	0	33016	
5926	0	32920	
5927	0	32736	
5928	0	32684	
5929	0	32548	
5930	0	32456	
5931	0	32548	
5932	0	32496	
5933	0	32628	
5934	0	32657	
5935	0	32420	
5936	0	32304	
5937	0	32261	
5938	0	32420	
5939	0	32644	
5940	0	32836	
5941	0	33192	
5942	0	33409	
5943	0	33173	
5944	0	33136	
5945	0	33124	
5946	0	33024	
5947	0	32816	
5948	0	32724	
5949	0	32548	
5950	0	32652	
5951	0	32724	
5952	0	32772	
5953	0	32818	
5954	0	32476	
5955	0	32157	
5956	0	32128	
5957	0	32356	
5958	0	32596	
5959	0	32833	
5960	0	32984	
5961	0	33253	
5962	0	33404	
5963	0	33436	
5964	0	33540	
5965	0	33600	
5966	0	33332	
5967	0	33104	
5968	0	33040	
5969	0	33025	
5970	0	32792	
5971	0	32276	
5972	0	31920	
5973	0	31952	
5974	0	32160	
5975	0	32180	
5976	0	32384	
5977	0	32512	
5978	0	32548	
5979	0	32688	
5980	0	32760	
5981	0	33048	
5982	0	31640	
5983	0	30520	
5984	0	30944	
5985	0	31712	
5986	0	32785	
5987	0	33708	
5988	0	34088	
5989	0	34364	
5990	0	34648	
5991	0	34716	
5992	0	34220	
5993	0	33893	
5994	0	34158	
5995	0	34020	
5996	0	33940	
5997	0	33412	
5998	0	32902	
5999	0	32588	
6000	0	32328	
6001	0	32388	
6002	0	32416	
6003	0	32290	
6004	0	32388	
6005	0	32476	
6006	0	32356	
6007	0	32272	
6008	0	32168	
6009	0	32164	
6010	0	32364	
6011	0	32388	
6012	0	32316	
6013	0	32103	
6014	0	32384	
6015	0	32324	
6016	0	32280	
6017	0	32312	
6018	0	32380	
6019	0	32684	
6020	0	32880	
6021	0	33236	
6022	0	33528	
6023	0	33416	
6024	0	33324	
6025	0	33157	
6026	0	33056	
6027	0	32886	
6028	0	32808	
6029	0	32640	
6030	0	32868	
6031	0	32876	
6032	0	33124	
6033	0	32980	
6034	0	32440	
6035	0	31972	
6036	0	32042	
6037	0	32008	
6038	0	32280	
6039	0	32608	
6040	0	32744	
6041	0	32988	
6042	0	33174	
6043	0	33144	
6044	0	33092	
6045	0	33012	
6046	0	32960	
6047	0	32912	
6048	0	32964	
6049	0	32856	
6050	0	32756	
6051	0	32628	
6052	0	32620	
6053	0	32544	
6054	0	32697	
6055	0	32624	
6056	0	32696	
6057	0	32700	
6058	0	32832	
6059	0	32949	
6060	0	32820	
6061	0	32782	
6062	0	32826	
6063	0	32920	
6064	0	32894	
6065	0	32876	
6066	0	32580	
6067	0	32532	
6068	0	32390	
6069	0	32576	
6070	0	32576	
6071	0	32742	
6072	0	32840	
6073	0	33004	
6074	0	33100	
6075	0	33013	
6076	0	33120	
6077	0	33036	
6078	0	33088	
6079	0	33065	
6080	0	33089	
6081	0	33320	
6082	0	33404	
6083	0	32966	
6084	0	32736	
6085	0	32672	
6086	0	32533	
6087	0	32516	
6088	0	32544	
6089	0	32224	
6090	0	32032	
6091	0	31688	
6092	0	32048	
6093	0	32380	
6094	0	32660	
6095	0	32444	
6096	0	32660	
6097	0	32948	
6098	0	32992	
6099	0	32484	
6100	0	31880	
6101	0	32436	
6102	0	33116	
6103	0	33680	
6104	0	34148	
6105	0	34358	
6106	0	34276	
6107	0	34104	
6108	0	33788	
6109	0	33629	
6110	0	33428	
6111	0	33009	
6112	0	32824	
6113	0	32732	
6114	0	32416	
6115	0	32080	
6116	0	31856	
6117	0	31864	
6118	0	31960	
6119	0	32156	
6120	0	32340	
6121	0	32506	
6122	0	32392	
6123	0	32633	
6124	0	32828	
6125	0	32785	
6126	0	32696	
6127	0	32648	
6128	0	32662	
6129	0	32852	
6130	0	32773	
6131	0	32669	
6132	0	32612	
6133	0	32772	
6134	0	32862	
6135	0	32648	
6136	0	32232	
6137	0	32156	
6138	0	32444	
6139	0	32740	
6140	0	32896	
6141	0	33112	
6142	0	33264	
6143	0	33158	
6144	0	33184	
6145	0	33228	
6146	0	33100	
6147	0	32988	
6148	0	32982	
6149	0	32820	
6150	0	32692	
6151	0	32508	
6152	0	32504	
6153	0	32444	
6154	0	32238	
6155	0	32132	
6156	0	32260	
6157	0	32444	
6158	0	32782	
6159	0	32902	
6160	0	33024	
6161	0	33172	
6162	0	33304	
6163	0	33100	
6164	0	33288	
6165	0	33140	
6166	0	32448	
6167	0	32261	
6168	0	32421	
6169	0	32661	
6170	0	32357	
6171	0	32445	
6172	0	32726	
6173	0	32820	
6174	0	33080	
6175	0	33192	
6176	0	33312	
6177	0	33256	
6178	0	33260	
6179	0	33552	
6180	0	33428	
6181	0	33548	
6182	0	33376	
6183	0	33012	
6184	0	32824	
6185	0	32732	
6186	0	32712	
6187	0	32607	
6188	0	32484	
6189	0	32564	
6190	0	32572	
6191	0	32324	
6192	0	32256	
6193	0	31860	
6194	0	32028	
6195	0	32068	
6196	0	32261	
6197	0	32532	
6198	0	32730	
6199	0	32744	
6200	0	32672	
6201	0	33040	
6202	0	32981	
6203	0	33044	
6204	0	33344	
6205	0	33552	
6206	0	33388	
6207	0	33104	
6208	0	32905	
6209	0	32740	
6210	0	32468	
6211	0	32288	
6212	0	32320	
6213	0	32364	
6214	0	32468	
6215	0	32236	
6216	0	32276	
6217	0	32406	
6218	0	32584	
6219	0	32802	
6220	0	32660	
6221	0	32828	
6222	0	32964	
6223	0	33061	
6224	0	33313	
6225	0	33212	
6226	0	33260	
6227	0	33253	
6228	0	33304	
6229	0	33196	
6230	0	33184	
6231	0	32744	
6232	0	32540	
6233	0	32656	
6234	0	32744	
6235	0	32660	
6236	0	32580	
6237	0	32556	
6238	0	32632	
6239	0	32776	
6240	0	32580	
6241	0	32878	
6242	0	32888	
6243	0	32804	
6244	0	32852	
6245	0	32412	
6246	0	32100	
6247	0	31596	
6248	0	31877	
6249	0	32264	
6250	0	32380	
6251	0	32612	
6252	0	32972	
6253	0	33221	
6254	0	33596	
6255	0	33648	
6256	0	33488	
6257	0	33472	
6258	0	33600	
6259	0	33561	
6260	0	33297	
6261	0	33620	
6262	0	33476	
6263	0	33028	
6264	0	32852	
6265	0	32416	
6266	0	32462	
6267	0	32628	
6268	0	32700	
6269	0	32452	
6270	0	32324	
6271	0	32302	
6272	0	32404	
6273	0	32472	
6274	0	32696	
6275	0	32484	
6276	0	32489	
6277	0	32460	
6278	0	32620	
6279	0	32396	
6280	0	32176	
6281	0	32468	
6282	0	32764	
6283	0	32764	
6284	0	33032	
6285	0	33076	
6286	0	33064	
6287	0	33132	
6288	0	33364	
6289	0	33248	
6290	0	33104	
6291	0	32960	
6292	0	32056	
6293	0	31428	
6294	0	31624	
6295	0	31737	
6296	0	32172	
6297	0	32720	
6298	0	33188	
6299	0	33452	
6300	0	33481	
6301	0	33700	
6302	0	33828	
6303	0	33920	
6304	0	34004	
6305	0	33688	
6306	0	33428	
6307	0	33120	
6308	0	32800	
6309	0	32464	
6310	0	32293	
6311	0	32344	
6312	0	32156	
6313	0	32240	
6314	0	32140	
6315	0	32020	
6316	0	32144	
6317	0	32314	
6318	0	32452	
6319	0	32728	
6320	0	32757	
6321	0	32949	
6322	0	33096	
6323	0	33184	
6324	0	32992	
6325	0	32752	
6326	0	32516	
6327	0	32400	
6328	0	32516	
6329	0	32712	
6330	0	32844	
6331	0	32848	
6332	0	32952	
6333	0	32856	
6334	0	32516	
6335	0	32464	
6336	0	32441	
6337	0	32461	
6338	0	32452	
6339	0	32710	
6340	0	32864	
6341	0	33212	
6342	0	33460	
6343	0	33476	
6344	0	33452	
6345	0	33300	
6346	0	33008	
6347	0	32836	
6348	0	33024	
6349	0	33020	
6350	0	32884	
6351	0	32796	
6352	0	32744	
6353	0	32732	
6354	0	32692	
6355	0	32552	
6356	0	32536	
6357	0	32428	
6358	0	32664	
6359	0	32820	
6360	0	32916	
6361	0	32800	
6362	0	32828	
6363	0	32788	
6364	0	32944	
6365	0	32840	
6366	0	32840	
6367	0	32704	
6368	0	32784	
6369	0	32684	
6370	0	32772	
6371	0	32668	
6372	0	32640	
6373	0	32752	
6374	0	32696	
6375	0	32532	
6376	0	32545	
6377	0	32660	
6378	0	32628	
6379	0	32516	
6380	0	32400	
6381	0	32737	
6382	0	33060	
6383	0	33052	
6384	0	33148	
6385	0	33124	
6386	0	32976	
6387	0	32616	
6388	0	32536	
6389	0	32671	
6390	0	32704	
6391	0	32768	
6392	0	32824	
6393	0	32908	
6394	0	33012	
6395	0	32316	
6396	0	31776	
6397	0	31984	
6398	0	32324	
6399	0	32584	
6400	0	32834	
6401	0	33168	
6402	0	33576	
6403	0	33661	
6404	0	33780	
6405	0	33568	
6406	0	33336	
6407	0	33136	
6408	0	32940	
6409	0	32984	
6410	0	33040	
6411	0	32704	
6412	0	32561	
6413	0	32380	
6414	0	32196	
6415	0	32080	
6416	0	32124	
6417	0	32156	
6418	0	32008	
6419	0	32068	
6420	0	32128	
6421	0	32572	
6422	0	32980	
6423	0	33144	
6424	0	33488	
6425	0	33296	
6426	0	33221	
6427	0	33220	
6428	0	33268	
6429	0	33244	
6430	0	33024	
6431	0	32168	
6432	0	31956	
6433	0	32104	
6434	0	32020	
6435	0	32200	
6436	0	32608	
6437	0	32924	
6438	0	33216	
6439	0	33260	
6440	0	33324	
6441	0	33624	
6442	0	33824	
6443	0	33680	
6444	0	33528	
6445	0	33316	
6446	0	33120	
6447	0	32944	
6448	0	32604	
6449	0	32488	
6450	0	32289	
6451	0	32188	
6452	0	32140	
6453	0	32172	
6454	0	32276	
6455	0	32292	
6456	0	32480	
6457	0	32745	
6458	0	32804	
6459	0	32820	
6460	0	32340	
6461	0	32584	
6462	0	32752	
6463	0	32560	
6464	0	32568	
6465	0	32768	
6466	0	32844	
6467	0	32976	
6468	0	33188	
6469	0	33364	
6470	0	33460	
6471	0	33197	
6472	0	33084	
6473	0	33144	
6474	0	33384	
6475	0	33244	
6476	0	33111	
6477	0	32736	
6478	0	32476	
6479	0	32380	
6480	0	32048	
6481	0	32125	
6482	0	32353	
6483	0	32709	
6484	0	32900	
6485	0	32662	
6486	0	32709	
6487	0	32620	
6488	0	32632	
6489	0	32716	
6490	0	32968	
6491	0	32944	
6492	0	32844	
6493	0	32924	
6494	0	33080	
6495	0	32900	
6496	0	32888	
6497	0	32624	
6498	0	32636	
6499	0	32608	
6500	0	32388	
6501	0	32185	
6502	0	31728	
6503	0	31636	
6504	0	32124	
6505	0	32460	
6506	0	32781	
6507	0	33056	
6508	0	33352	
6509	0	33480	
6510	0	33656	
6511	0	33668	
6512	0	33413	
6513	0	32628	
6514	0	32196	
6515	0	32228	
6516	0	32544	
6517	0	32887	
6518	0	33000	
6519	0	32984	
6520	0	33113	
6521	0	33437	
6522	0	33708	
6523	0	33540	
6524	0	33700	
6525	0	33548	
6526	0	33389	
6527	0	33152	
6528	0	33060	
6529	0	32780	
6530	0	32576	
6531	0	32160	
6532	0	31904	
6533	0	31712	
6534	0	31612	
6535	0	31765	
6536	0	31920	
6537	0	32108	
6538	0	32460	
6539	0	32597	
6540	0	32824	
6541	0	33072	
6542	0	33284	
6543	0	33253	
6544	0	33406	
6545	0	33444	
6546	0	33344	
6547	0	33142	
6548	0	32833	
6549	0	32728	
6550	0	32572	
6551	0	32612	
6552	0	32656	
6553	0	32540	
6554	0	32528	
6555	0	32436	
6556	0	32596	
6557	0	32671	
6558	0	32540	
6559	0	32416	
6560	0	32724	
6561	0	33108	
6562	0	33176	
6563	0	33076	
6564	0	33012	
6565	0	32864	
6566	0	32764	
6567	0	32652	
6568	0	32661	
6569	0	32692	
6570	0	32816	
6571	0	32812	
6572	0	32900	
6573	0	32922	
6574	0	32944	
6575	0	32764	
6576	0	32644	
6577	0	32472	
6578	0	32692	
6579	0	32708	
6580	0	32616	
6581	0	32872	
6582	0	32844	
6583	0	32660	
6584	0	32722	
6585	0	32532	
6586	0	32508	
6587	0	32084	
6588	0	31596	
6589	0	31788	
6590	0	32175	
6591	0	32528	
6592	0	32905	
6593	0	33182	
6594	0	33401	
6595	0	33360	
6596	0	33785	
6597	0	34072	
6598	0	33944	
6599	0	33700	
6600	0	33460	
6601	0	32992	
6602	0	32800	
6603	0	32548	
6604	0	32526	
6605	0	32401	
6606	0	32481	
6607	0	32166	
6608	0	32232	
6609	0	32620	
6610	0	32852	
6611	0	33080	
6612	0	33142	
6613	0	33212	
6614	0	33224	
6615	0	32956	
6616	0	32616	
6617	0	32473	
6618	0	32576	
6619	0	32580	
6620	0	32693	
6621	0	32800	
6622	0	32928	
6623	0	32796	
6624	0	32860	
6625	0	32873	
6626	0	32596	
6627	0	32524	
6628	0	32632	
6629	0	32916	
6630	0	32956	
6631	0	32936	
6632	0	32780	
6633	0	32824	
6634	0	32548	
6635	0	32524	
6636	0	32580	
6637	0	32608	
6638	0	32644	
6639	0	32612	
6640	0	32686	
6641	0	32772	
6642	0	33040	
6643	0	33076	
6644	0	33268	
6645	0	33084	
6646	0	32941	
6647	0	32804	
6648	0	32719	
6649	0	32592	
6650	0	32756	
6651	0	32813	
6652	0	32890	
6653	0	32816	
6654	0	32684	
6655	0	32716	
6656	0	32728	
6657	0	32716	
6658	0	32588	
6659	0	32432	
6660	0	32664	
6661	0	32884	
6662	0	32988	
6663	0	32726	
6664	0	32748	
6665	0	32804	
6666	0	33016	
6667	0	33038	
6668	0	32708	
6669	0	32386	
6670	0	32480	
6671	0	32541	
6672	0	32428	
6673	0	32444	
6674	0	32588	
6675	0	32580	
6676	0	32568	
6677	0	32708	
6678	0	32820	
6679	0	32712	
6680	0	32792	
6681	0	33024	
6682	0	33025	
6683	0	32993	
6684	0	33184	
6685	0	33140	
6686	0	33044	
6687	0	32948	
6688	0	32792	
6689	0	32512	
6690	0	32332	
6691	0	32460	
6692	0	32656	
6693	0	32796	
6694	0	32736	
6695	0	32548	
6696	0	32536	
6697	0	32652	
6698	0	32858	
6699	0	32924	
6700	0	33136	
6701	0	33304	
6702	0	33364	
6703	0	33252	
6704	0	33252	
6705	0	32821	
6706	0	32324	
6707	0	32048	
6708	0	31876	
6709	0	32032	
6710	0	32116	
6711	0	32393	
6712	0	32528	
6713	0	32940	
6714	0	32944	
6715	0	33214	
6716	0	33400	
6717	0	33616	
6718	0	33664	
6719	0	33148	
6720	0	33172	
6721	0	33332	
6722	0	33284	
6723	0	33060	
6724	0	33012	
6725	0	32748	
6726	0	32620	
6727	0	32720	
6728	0	32741	
6729	0	32340	
6730	0	32456	
6731	0	32056	
6732	0	32088	
6733	0	32549	
6734	0	32668	
6735	0	32748	
6736	0	32736	
6737	0	32812	
6738	0	32996	
6739	0	33144	
6740	0	33145	
6741	0	33320	
6742	0	33222	
6743	0	33148	
6744	0	33182	
6745	0	33144	
6746	0	32908	
6747	0	32776	
6748	0	32644	
6749	0	32500	
6750	0	32300	
6751	0	32196	
6752	0	32240	
6753	0	32365	
6754	0	32340	
6755	0	32472	
6756	0	32596	
6757	0	32552	
6758	0	32556	
6759	0	32772	
6760	0	32888	
6761	0	32928	
6762	0	32876	
6763	0	32748	
6764	0	32856	
6765	0	32952	
6766	0	32908	
6767	0	32732	
6768	0	32724	
6769	0	32464	
6770	0	32364	
6771	0	32244	
6772	0	32413	
6773	0	32704	
6774	0	32600	
6775	0	32684	
6776	0	32996	
6777	0	32856	
6778	0	32570	
6779	0	32552	
6780	0	32940	
6781	0	33304	
6782	0	33445	
6783	0	33521	
6784	0	33472	
6785	0	33256	
6786	0	32740	
6787	0	32540	
6788	0	32568	
6789	0	32804	
6790	0	32844	
6791	0	32830	
6792	0	32992	
6793	0	32836	
6794	0	32216	
6795	0	32221	
6796	0	32328	
6797	0	32629	
6798	0	32796	
6799	0	32836	
6800	0	33048	
6801	0	33232	
6802	0	33173	
6803	0	33064	
6804	0	33101	
6805	0	33004	
6806	0	33094	
6807	0	33132	
6808	0	33068	
6809	0	32904	
6810	0	32928	
6811	0	32661	
6812	0	32500	
6813	0	32560	
6814	0	32638	
6815	0	32720	
6816	0	32728	
6817	0	32367	
6818	0	32210	
6819	0	32108	
6820	0	32328	
6821	0	32560	
6822	0	32844	
6823	0	32976	
6824	0	32918	
6825	0	32852	
6826	0	32877	
6827	0	32960	
6828	0	32988	
6829	0	32988	
6830	0	32948	
6831	0	32832	
6832	0	32829	
6833	0	32916	
6834	0	32824	
6835	0	32644	
6836	0	32516	
6837	0	32568	
6838	0	32752	
6839	0	32796	
6840	0	32941	
6841	0	33028	
6842	0	32868	
6843	0	32932	
6844	0	33120	
6845	0	32868	
6846	0	32716	
6847	0	32688	
6848	0	32424	
6849	0	32440	
6850	0	32644	
6851	0	32908	
6852	0	32780	
6853	0	32716	
6854	0	32600	
6855	0	32624	
6856	0	32452	
6857	0	32272	
6858	0	31428	
6859	0	31120	
6860	0	31716	
6861	0	32512	
6862	0	33084	
6863	0	33453	
6864	0	33672	
6865	0	33700	
6866	0	33788	
6867	0	33966	
6868	0	33977	
6869	0	33856	
6870	0	33656	
6871	0	33364	
6872	0	33133	
6873	0	32992	
6874	0	32540	
6875	0	32137	
6876	0	32200	
6877	0	32442	
6878	0	32268	
6879	0	31988	
6880	0	31844	
6881	0	31308	
6882	0	31368	
6883	0	31788	
6884	0	32388	
6885	0	32856	
6886	0	33208	
6887	0	33564	
6888	0	33849	
6889	0	34012	
6890	0	33980	
6891	0	33852	
6892	0	33488	
6893	0	33442	
6894	0	33232	
6895	0	33160	
6896	0	32816	
6897	0	32476	
6898	0	32512	
6899	0	32408	
6900	0	32504	
6901	0	32636	
6902	0	32681	
6903	0	32600	
6904	0	32517	
6905	0	32544	
6906	0	32512	
6907	0	32588	
6908	0	32481	
6909	0	32488	
6910	0	32478	
6911	0	32532	
6912	0	32640	
6913	0	32750	
6914	0	32596	
6915	0	32492	
6916	0	32367	
6917	0	32436	
6918	0	32692	
6919	0	32556	
6920	0	32852	
6921	0	33016	
6922	0	33172	
6923	0	33300	
6924	0	33164	
6925	0	33092	
6926	0	33180	
6927	0	33108	
6928	0	33096	
6929	0	33064	
6930	0	32860	
6931	0	32712	
6932	0	32588	
6933	0	32340	
6934	0	32172	
6935	0	32293	
6936	0	32572	
6937	0	32744	
6938	0	32732	
6939	0	32516	
6940	0	32400	
6941	0	32644	
6942	0	32772	
6943	0	32900	
6944	0	33036	
6945	0	33004	
6946	0	32948	
6947	0	33068	
6948	0	32958	
6949	0	32896	
6950	0	32521	
6951	0	32425	
6952	0	32420	
6953	0	32817	
6954	0	32824	
6955	0	33068	
6956	0	33264	
6957	0	33248	
6958	0	33040	
6959	0	32693	
6960	0	32960	
6961	0	33000	
6962	0	31997	
6963	0	32012	
6964	0	31736	
6965	0	32028	
6966	0	32589	
6967	0	32960	
6968	0	33309	
6969	0	33612	
6970	0	33796	
6971	0	33760	
6972	0	33632	
6973	0	33560	
6974	0	33300	
6975	0	33396	
6976	0	33598	
6977	0	33420	
6978	0	32920	
6979	0	32316	
6980	0	32068	
6981	0	31988	
6982	0	32196	
6983	0	32192	
6984	0	32254	
6985	0	32161	
6986	0	32188	
6987	0	32436	
6988	0	32648	
6989	0	32840	
6990	0	32956	
6991	0	32884	
6992	0	32840	
6993	0	32917	
6994	0	32708	
6995	0	32628	
6996	0	32472	
6997	0	32372	
6998	0	32532	
6999	0	32614	
7000	0	32876	
7001	0	33092	
7002	0	33164	
7003	0	33180	
7004	0	33116	
7005	0	32932	
7006	0	32789	
7007	0	32900	
7008	0	32704	
7009	0	32528	
7010	0	32512	
7011	0	32544	
7012	0	32492	
7013	0	32460	
7014	0	32280	
7015	0	32188	
7016	0	31988	
7017	0	32292	
7018	0	32781	
7019	0	33105	
7020	0	33532	
7021	0	33836	
7022	0	33956	
7023	0	34048	
7024	0	33744	
7025	0	33172	
7026	0	32848	
7027	0	32740	
7028	0	32620	
7029	0	32744	
7030	0	32704	
7031	0	32420	
7032	0	32236	
7033	0	32328	
7034	0	32200	
7035	0	32288	
7036	0	32404	
7037	0	32400	
7038	0	32624	
7039	0	32512	
7040	0	32820	
7041	0	33068	
7042	0	33224	
7043	0	33196	
7044	0	33000	
7045	0	32529	
7046	0	32208	
7047	0	32016	
7048	0	32272	
7049	0	32676	
7050	0	32944	
7051	0	32764	
7052	0	32512	
7053	0	32740	
7054	0	32748	
7055	0	32940	
7056	0	33012	
7057	0	33213	
7058	0	33509	
7059	0	33508	
7060	0	33780	
7061	0	33821	
7062	0	33580	
7063	0	33102	
7064	0	32708	
7065	0	32756	
7066	0	32776	
7067	0	32564	
7068	0	32132	
7069	0	31844	
7070	0	32085	
7071	0	32124	
7072	0	32324	
7073	0	32576	
7074	0	32564	
7075	0	32824	
7076	0	32996	
7077	0	32976	
7078	0	32912	
7079	0	32849	
7080	0	33077	
7081	0	33156	
7082	0	33124	
7083	0	33268	
7084	0	33120	
7085	0	33012	
7086	0	32516	
7087	0	32252	
7088	0	32357	
7089	0	32424	
7090	0	32488	
7091	0	32492	
7092	0	32540	
7093	0	32665	
7094	0	32703	
7095	0	32317	
7096	0	32252	
7097	0	32528	
7098	0	32879	
7099	0	33088	
7100	0	33272	
7101	0	33272	
7102	0	33280	
7103	0	33380	
7104	0	33337	
7105	0	33192	
7106	0	33137	
7107	0	33044	
7108	0	32944	
7109	0	32980	
7110	0	32910	
7111	0	32711	
7112	0	32412	
7113	0	32320	
7114	0	32384	
7115	0	32516	
7116	0	32636	
7117	0	32572	
7118	0	32508	
7119	0	32414	
7120	0	32696	
7121	0	33026	
7122	0	33028	
7123	0	32808	
7124	0	32548	
7125	0	32516	
7126	0	32492	
7127	0	32548	
7128	0	32560	
7129	0	32708	
7130	0	32668	
7131	0	32680	
7132	0	32624	
7133	0	32380	
7134	0	32056	
7135	0	32256	
7136	0	32628	
7137	0	33020	
7138	0	33200	
7139	0	33260	
7140	0	33632	
7141	0	33568	
7142	0	33584	
7143	0	33628	
7144	0	33364	
7145	0	33076	
7146	0	32996	
7147	0	32900	
7148	0	32880	
7149	0	32744	
7150	0	32304	
7151	0	32240	
7152	0	32456	
7153	0	32472	
7154	0	32336	
7155	0	32360	
7156	0	32484	
7157	0	32608	
7158	0	32544	
7159	0	32464	
7160	0	32888	
7161	0	33152	
7162	0	32884	
7163	0	32584	
7164	0	32120	
7165	0	31820	
7166	0	31849	
7167	0	32264	
7168	0	32776	
7169	0	33256	
7170	0	33492	
7171	0	33620	
7172	0	33716	
7173	0	33661	
7174	0	33440	
7175	0	33516	
7176	0	33524	
7177	0	33369	
7178	0	33308	
7179	0	33016	
7180	0	32888	
7181	0	32408	
7182	0	32349	
7183	0	32452	
7184	0	32524	
7185	0	32592	
7186	0	32464	
7187	0	32448	
7188	0	32548	
7189	0	32396	
7190	0	32348	
7191	0	32492	
7192	0	32636	
7193	0	32928	
7194	0	32721	
7195	0	32757	
7196	0	32677	
7197	0	32804	
7198	0	32732	
7199	0	32560	
7200	0	32820	
7201	0	32836	
7202	0	32814	
7203	0	33076	
7204	0	33112	
7205	0	32864	
7206	0	32800	
7207	0	32580	
7208	0	32460	
7209	0	32576	
7210	0	32584	
7211	0	32620	
7212	0	32632	
7213	0	32688	
7214	0	32548	
7215	0	32596	
7216	0	32678	
7217	0	32688	
7218	0	32648	
7219	0	32588	
7220	0	32940	
7221	0	32996	
7222	0	32917	
7223	0	33004	
7224	0	33044	
7225	0	33025	
7226	0	33072	
7227	0	32632	
7228	0	32176	
7229	0	32348	
7230	0	32692	
7231	0	32806	
7232	0	32924	
7233	0	33102	
7234	0	33112	
7235	0	33184	
7236	0	33108	
7237	0	33096	
7238	0	33176	
7239	0	33032	
7240	0	32916	
7241	0	32864	
7242	0	32920	
7243	0	32924	
7244	0	32596	
7245	0	32480	
7246	0	32548	
7247	0	32628	
7248	0	32040	
7249	0	31652	
7250	0	31910	
7251	0	32388	
7252	0	32749	
7253	0	33060	
7254	0	33092	
7255	0	33292	
7256	0	33220	
7257	0	33348	
7258	0	33620	
7259	0	33629	
7260	0	33616	
7261	0	33428	
7262	0	33232	
7263	0	33272	
7264	0	32836	
7265	0	32572	
7266	0	32512	
7267	0	32280	
7268	0	32196	
7269	0	32080	
7270	0	32140	
7271	0	32132	
7272	0	32128	
7273	0	32328	
7274	0	32352	
7275	0	32480	
7276	0	32622	
7277	0	32762	
7278	0	32910	
7279	0	32940	
7280	0	33244	
7281	0	33424	
7282	0	33372	
7283	0	33272	
7284	0	33144	
7285	0	32940	
7286	0	32789	
7287	0	32736	
7288	0	32721	
7289	0	32688	
7290	0	32420	
7291	0	32377	
7292	0	32420	
7293	0	32544	
7294	0	32532	
7295	0	32564	
7296	0	32712	
7297	0	32870	
7298	0	32900	
7299	0	32588	
7300	0	32832	
7301	0	32888	
7302	0	32716	
7303	0	32896	
7304	0	33000	
7305	0	33013	
7306	0	33094	
7307	0	33064	
7308	0	32964	
7309	0	32908	
7310	0	32824	
7311	0	32728	
7312	0	32464	
7313	0	32256	
7314	0	32137	
7315	0	32128	
7316	0	32012	
7317	0	32188	
7318	0	32388	
7319	0	32564	
7320	0	33004	
7321	0	33300	
7322	0	33360	
7323	0	33612	
7324	0	33613	
7325	0	33356	
7326	0	33248	
7327	0	33233	
7328	0	33212	
7329	0	33030	
7330	0	32952	
7331	0	32905	
7332	0	32684	
7333	0	32164	
7334	0	31776	
7335	0	31764	
7336	0	31928	
7337	0	32244	
7338	0	32540	
7339	0	32718	
7340	0	33071	
7341	0	33423	
7342	0	33496	
7343	0	33552	
7344	0	33340	
7345	0	33238	
7346	0	33204	
7347	0	32912	
7348	0	32724	
7349	0	32624	
7350	0	32528	
7351	0	32568	
7352	0	31688	
7353	0	31652	
7354	0	31944	
7355	0	32268	
7356	0	32612	
7357	0	33000	
7358	0	33014	
7359	0	33284	
7360	0	33780	
7361	0	34004	
7362	0	33972	
7363	0	33828	
7364	0	33485	
7365	0	33120	
7366	0	32984	
7367	0	32984	
7368	0	32560	
7369	0	32244	
7370	0	32108	
7371	0	32260	
7372	0	32384	
7373	0	32324	
7374	0	32104	
7375	0	32152	
7376	0	32252	
7377	0	32376	
7378	0	32612	
7379	0	32672	
7380	0	32920	
7381	0	32928	
7382	0	32897	
7383	0	33088	
7384	0	33012	
7385	0	32900	
7386	0	32600	
7387	0	32532	
7388	0	32700	
7389	0	32804	
7390	0	32600	
7391	0	32436	
7392	0	32468	
7393	0	32596	
7394	0	32740	
7395	0	32904	
7396	0	32852	
7397	0	32836	
7398	0	32864	
7399	0	32776	
7400	0	33000	
7401	0	33225	
7402	0	33096	
7403	0	32990	
7404	0	32940	
7405	0	32972	
7406	0	32680	
7407	0	32492	
7408	0	32152	
7409	0	32144	
7410	0	32252	
7411	0	32478	
7412	0	32768	
7413	0	32828	
7414	0	32932	
7415	0	32908	
7416	0	33020	
7417	0	33013	
7418	0	32968	
7419	0	32992	
7420	0	33160	
7421	0	33160	
7422	0	33124	
7423	0	33208	
7424	0	32820	
7425	0	32544	
7426	0	32448	
7427	0	32256	
7428	0	32200	
7429	0	32454	
7430	0	32776	
7431	0	33016	
7432	0	32877	
7433	0	32940	
7434	0	32836	
7435	0	32960	
7436	0	32984	
7437	0	32992	
7438	0	32937	
7439	0	32980	
7440	0	33116	
7441	0	33277	
7442	0	33476	
7443	0	33608	
7444	0	33244	
7445	0	32925	
7446	0	32778	
7447	0	32676	
7448	0	32664	
7449	0	32578	
7450	0	32428	
7451	0	32445	
7452	0	32428	
7453	0	32360	
7454	0	32116	
7455	0	32237	
7456	0	31944	
7457	0	32148	
7458	0	32586	
7459	0	32680	
7460	0	32952	
7461	0	33024	
7462	0	32964	
7463	0	33220	
7464	0	33288	
7465	0	33040	
7466	0	33004	
7467	0	32948	
7468	0	32916	
7469	0	32692	
7470	0	32584	
7471	0	32720	
7472	0	32732	
7473	0	32604	
7474	0	32316	
7475	0	32456	
7476	0	32621	
7477	0	32724	
7478	0	32692	
7479	0	32740	
7480	0	32901	
7481	0	32944	
7482	0	32856	
7483	0	32972	
7484	0	32900	
7485	0	32868	
7486	0	32725	
7487	0	32712	
7488	0	32728	
7489	0	32664	
7490	0	32553	
7491	0	32612	
7492	0	32768	
7493	0	32840	
7494	0	32720	
7495	0	32808	
7496	0	32788	
7497	0	32724	
7498	0	32676	
7499	0	32676	
7500	0	32868	
7501	0	32984	
7502	0	32776	
7503	0	33028	
7504	0	32948	
7505	0	32852	
7506	0	32628	
7507	0	32640	
7508	0	32808	
7509	0	32869	
7510	0	33000	
7511	0	33033	
7512	0	33160	
7513	0	33092	
7514	0	32802	
7515	0	32596	
7516	0	32293	
7517	0	32503	
7518	0	32744	
7519	0	32896	
7520	0	33096	
7521	0	33120	
7522	0	33142	
7523	0	32948	
7524	0	32804	
7525	0	32530	
7526	0	32684	
7527	0	32704	
7528	0	32844	
7529	0	32980	
7530	0	33132	
7531	0	32998	
7532	0	32772	
7533	0	32552	
7534	0	32540	
7535	0	32700	
7536	0	32636	
7537	0	32456	
7538	0	32312	
7539	0	32425	
7540	0	32668	
7541	0	32736	
7542	0	32756	
7543	0	32904	
7544	0	32924	
7545	0	32836	
7546	0	32864	
7547	0	32864	
7548	0	32948	
7549	0	32912	
7550	0	33000	
7551	0	32960	
7552	0	33033	
7553	0	32884	
7554	0	32572	
7555	0	32560	
7556	0	32512	
7557	0	32588	
7558	0	32592	
7559	0	32708	
7560	0	32948	
7561	0	33076	
7562	0	32856	
7563	0	32728	
7564	0	32704	
7565	0	32576	
7566	0	32526	
7567	0	32648	
7568	0	32676	
7569	0	32644	
7570	0	32654	
7571	0	32240	
7572	0	32356	
7573	0	32580	
7574	0	32612	
7575	0	32828	
7576	0	33116	
7577	0	33164	
7578	0	33196	
7579	0	32948	
7580	0	32806	
7581	0	32892	
7582	0	32692	
7583	0	32836	
7584	0	32776	
7585	0	32832	
7586	0	32892	
7587	0	32936	
7588	0	32836	
7589	0	32708	
7590	0	32648	
7591	0	32661	
7592	0	32844	
7593	0	33076	
7594	0	33277	
7595	0	33468	
7596	0	33375	
7597	0	33216	
7598	0	33012	
7599	0	32989	
7600	0	32952	
7601	0	33012	
7602	0	32892	
7603	0	33020	
7604	0	32793	
7605	0	32520	
7606	0	32380	
7607	0	31784	
7608	0	31052	
7609	0	31052	
7610	0	31588	
7611	0	32220	
7612	0	32744	
7613	0	33188	
7614	0	33508	
7615	0	33564	
7616	0	33600	
7617	0	33612	
7618	0	33517	
7619	0	33520	
7620	0	33636	
7621	0	33668	
7622	0	33357	
7623	0	33118	
7624	0	32588	
7625	0	32436	
7626	0	32225	
7627	0	32285	
7628	0	32356	
7629	0	32404	
7630	0	32288	
7631	0	32279	
7632	0	32365	
7633	0	32424	
7634	0	32380	
7635	0	32548	
7636	0	32560	
7637	0	32712	
7638	0	32884	
7639	0	32838	
7640	0	32916	
7641	0	32800	
7642	0	32808	
7643	0	33028	
7644	0	33020	
7645	0	32904	
7646	0	32886	
7647	0	32804	
7648	0	32784	
7649	0	32692	
7650	0	32768	
7651	0	32804	
7652	0	32780	
7653	0	32628	
7654	0	32620	
7655	0	32524	
7656	0	32528	
7657	0	32752	
7658	0	32676	
7659	0	32848	
7660	0	32984	
7661	0	33196	
7662	0	33149	
7663	0	33104	
7664	0	33004	
7665	0	32980	
7666	0	32836	
7667	0	32716	
7668	0	32648	
7669	0	32572	
7670	0	32580	
7671	0	32648	
7672	0	32824	
7673	0	32676	
7674	0	32496	
7675	0	32612	
7676	0	32572	
7677	0	32756	
7678	0	32788	
7679	0	32892	
7680	0	33116	
7681	0	33144	
7682	0	33104	
7683	0	33116	
7684	0	32848	
7685	0	32704	
7686	0	32724	
7687	0	32872	
7688	0	32892	
7689	0	32796	
7690	0	32640	
7691	0	32568	
7692	0	32581	
7693	0	32472	
7694	0	32428	
7695	0	32492	
7696	0	32492	
7697	0	32604	
7698	0	32742	
7699	0	32916	
7700	0	33080	
7701	0	33110	
7702	0	33152	
7703	0	33060	
7704	0	32880	
7705	0	32704	
7706	0	32704	
7707	0	32661	
7708	0	32592	
7709	0	32652	
7710	0	32660	
7711	0	32616	
7712	0	32676	
7713	0	32636	
7714	0	32689	
7715	0	32677	
7716	0	32728	
7717	0	33048	
7718	0	33348	
7719	0	33448	
7720	0	33148	
7721	0	32928	
7722	0	32972	
7723	0	32828	
7724	0	32720	
7725	0	32568	
7726	0	32450	
7727	0	32436	
7728	0	32408	
7729	0	32608	
7730	0	32824	
7731	0	32904	
7732	0	32840	
7733	0	32720	
7734	0	32648	
7735	0	32632	
7736	0	32825	
7737	0	32405	
7738	0	32181	
7739	0	32380	
7740	0	32476	
7741	0	32644	
7742	0	32732	
7743	0	32864	
7744	0	33036	
7745	0	33128	
7746	0	33248	
7747	0	33452	
7748	0	33709	
7749	0	33668	
7750	0	33490	
7751	0	33200	
7752	0	32984	
7753	0	32717	
7754	0	32304	
7755	0	32289	
7756	0	32440	
7757	0	32541	
7758	0	32596	
7759	0	32766	
7760	0	32848	
7761	0	32752	
7762	0	32632	
7763	0	32812	
7764	0	32756	
7765	0	32632	
7766	0	32508	
7767	0	32516	
7768	0	32500	
7769	0	32452	
7770	0	32380	
7771	0	32524	
7772	0	32664	
7773	0	32904	
7774	0	32916	
7775	0	32736	
7776	0	32788	
7777	0	32936	
7778	0	32860	
7779	0	32894	
7780	0	33096	
7781	0	32964	
7782	0	32984	
7783	0	32992	
7784	0	32964	
7785	0	32864	
7786	0	32920	
7787	0	33018	
7788	0	33032	
7789	0	32876	
7790	0	32812	
7791	0	32716	
7792	0	32661	
7793	0	32380	
7794	0	32137	
7795	0	31688	
7796	0	31636	
7797	0	32020	
7798	0	32388	
7799	0	32932	
7800	0	33278	
7801	0	33444	
7802	0	33406	
7803	0	33360	
7804	0	33436	
7805	0	33412	
7806	0	33382	
7807	0	33316	
7808	0	33220	
7809	0	32956	
7810	0	32880	
7811	0	32756	
7812	0	32628	
7813	0	32304	
7814	0	32204	
7815	0	32260	
7816	0	32348	
7817	0	32481	
7818	0	32636	
7819	0	32812	
7820	0	32960	
7821	0	33040	
7822	0	32936	
7823	0	32812	
7824	0	32708	
7825	0	32680	
7826	0	32636	
7827	0	32672	
7828	0	32780	
7829	0	32804	
7830	0	32781	
7831	0	32760	
7832	0	32672	
7833	0	32452	
7834	0	32284	
7835	0	32272	
7836	0	32488	
7837	0	32686	
7838	0	32540	
7839	0	32592	
7840	0	32896	
7841	0	33089	
7842	0	33120	
7843	0	33236	
7844	0	33220	
7845	0	33260	
7846	0	33292	
7847	0	33300	
7848	0	33070	
7849	0	33068	
7850	0	32916	
7851	0	32756	
7852	0	32780	
7853	0	32536	
7854	0	32348	
7855	0	32165	
7856	0	32268	
7857	0	32636	
7858	0	32832	
7859	0	32732	
7860	0	32417	
7861	0	32389	
7862	0	32404	
7863	0	32472	
7864	0	32760	
7865	0	32980	
7866	0	33168	
7867	0	33124	
7868	0	33180	
7869	0	33336	
7870	0	33228	
7871	0	33345	
7872	0	33292	
7873	0	32917	
7874	0	33008	
7875	0	33056	
7876	0	32983	
7877	0	32889	
7878	0	32596	
7879	0	32520	
7880	0	32580	
7881	0	32686	
7882	0	32924	
7883	0	32668	
7884	0	32404	
7885	0	32252	
7886	0	32216	
7887	0	32312	
7888	0	32576	
7889	0	32688	
7890	0	32728	
7891	0	32753	
7892	0	32744	
7893	0	32582	
7894	0	32456	
7895	0	32528	
7896	0	32812	
7897	0	32880	
7898	0	32734	
7899	0	32724	
7900	0	32756	
7901	0	32916	
7902	0	33072	
7903	0	33125	
7904	0	33152	
7905	0	32984	
7906	0	32948	
7907	0	33112	
7908	0	33120	
7909	0	32989	
7910	0	32732	
7911	0	32588	
7912	0	32732	
7913	0	32564	
7914	0	32588	
7915	0	32712	
7916	0	32828	
7917	0	32728	
7918	0	32536	
7919	0	32692	
7920	0	32756	
7921	0	32832	
7922	0	32933	
7923	0	32872	
7924	0	32714	
7925	0	32548	
7926	0	32584	
7927	0	32640	
7928	0	32632	
7929	0	32760	
7930	0	32832	
7931	0	32833	
7932	0	32879	
7933	0	32736	
7934	0	32828	
7935	0	32864	
7936	0	32880	
7937	0	32976	
7938	0	33004	
7939	0	33232	
7940	0	33280	
7941	0	33020	
7942	0	32872	
7943	0	32740	
7944	0	32564	
7945	0	32520	
7946	0	32578	
7947	0	32580	
7948	0	32676	
7949	0	32697	
7950	0	32725	
7951	0	32684	
7952	0	32757	
7953	0	32568	
7954	0	32549	
7955	0	32628	
7956	0	32776	
7957	0	32813	
7958	0	32844	
7959	0	33020	
7960	0	33005	
7961	0	32909	
7962	0	32904	
7963	0	32854	
7964	0	32900	
7965	0	32984	
7966	0	33104	
7967	0	32952	
7968	0	32648	
7969	0	32680	
7970	0	32576	
7971	0	32328	
7972	0	32440	
7973	0	32456	
7974	0	32424	
7975	0	32668	
7976	0	32736	
7977	0	32768	
7978	0	32740	
7979	0	32948	
7980	0	33004	
7981	0	33056	
7982	0	33048	
7983	0	32954	
7984	0	32812	
7985	0	32772	
7986	0	32648	
7987	0	32504	
7988	0	32328	
7989	0	32460	
7990	0	32504	
7991	0	32644	
7992	0	32816	
7993	0	32964	
7994	0	32973	
7995	0	32885	
7996	0	32992	
7997	0	33168	
7998	0	33084	
7999	0	33117	
8000	0	32593	
8001	0	32336	
8002	0	32284	
8003	0	32528	
8004	0	32572	
8005	0	32616	
8006	0	32560	
8007	0	32748	
8008	0	33021	
8009	0	33164	
8010	0	33316	
8011	0	33388	
8012	0	33556	
8013	0	33180	
8014	0	33080	
8015	0	33312	
8016	0	33156	
8017	0	32912	
8018	0	32800	
8019	0	32920	
8020	0	32860	
8021	0	32740	
8022	0	32628	
8023	0	32500	
8024	0	32340	
8025	0	32365	
8026	0	32372	
8027	0	32417	
8028	0	32480	
8029	0	32660	
8030	0	32640	
8031	0	32649	
8032	0	32557	
8033	0	32432	
8034	0	32436	
8035	0	32442	
8036	0	32576	
8037	0	32820	
8038	0	32800	
8039	0	32948	
8040	0	32984	
8041	0	33057	
8042	0	33173	
8043	0	33056	
8044	0	32976	
8045	0	32764	
8046	0	32720	
8047	0	32668	
8048	0	32664	
8049	0	32592	
8050	0	32660	
8051	0	32624	
8052	0	32508	
8053	0	32328	
8054	0	32512	
8055	0	32729	
8056	0	32724	
8057	0	32896	
8058	0	32892	
8059	0	33241	
8060	0	33280	
8061	0	33205	
8062	0	32832	
8063	0	32724	
8064	0	32862	
8065	0	32982	
8066	0	32940	
8067	0	32876	
8068	0	32796	
8069	0	32516	
8070	0	32374	
8071	0	32480	
8072	0	32560	
8073	0	32432	
8074	0	32462	
8075	0	32480	
8076	0	32584	
8077	0	32720	
8078	0	32916	
8079	0	33120	
8080	0	33060	
8081	0	32840	
8082	0	32500	
8083	0	32160	
8084	0	32396	
8085	0	32534	
8086	0	32772	
8087	0	32908	
8088	0	33052	
8089	0	33168	
8090	0	33184	
8091	0	33268	
8092	0	33204	
8093	0	33063	
8094	0	32928	
8095	0	32976	
8096	0	33096	
8097	0	33188	
8098	0	32932	
8099	0	32708	
8100	0	32680	
8101	0	32600	
8102	0	32600	
8103	0	32661	
8104	0	32796	
8105	0	32880	
8106	0	32772	
8107	0	32856	
8108	0	33016	
8109	0	33060	
8110	0	32909	
8111	0	32852	
8112	0	32856	
8113	0	32877	
8114	0	33079	
8115	0	32780	
8116	0	32584	
8117	0	32456	
8118	0	32380	
8119	0	32648	
8120	0	32668	
8121	0	32744	
8122	0	32856	
8123	0	32948	
8124	0	33046	
8125	0	32820	
8126	0	32680	
8127	0	32596	
8128	0	32460	
8129	0	32384	
8130	0	32456	
8131	0	32480	
8132	0	32596	
8133	0	32652	
8134	0	32800	
8135	0	32868	
8136	0	32812	
8137	0	32732	
8138	0	32500	
8139	0	32934	
8140	0	33204	
8141	0	33004	
8142	0	32860	
8143	0	32896	
8144	0	33020	
8145	0	33004	
8146	0	32952	
8147	0	32796	
8148	0	32644	
8149	0	32648	
8150	0	32512	
8151	0	32480	
8152	0	32572	
8153	0	32709	
8154	0	32760	
8155	0	32698	
8156	0	32964	
8157	0	33084	
8158	0	32850	
8159	0	32648	
8160	0	32612	
8161	0	32844	
8162	0	33087	
8163	0	33072	
8164	0	33016	
8165	0	32916	
8166	0	32808	
8167	0	32748	
8168	0	32688	
8169	0	32632	
8170	0	32645	
8171	0	32628	
8172	0	32644	
8173	0	32549	
8174	0	32620	
8175	0	32633	
8176	0	32624	
8177	0	32664	
8178	0	32520	
8179	0	32576	
8180	0	32720	
8181	0	32988	
8182	0	33100	
8183	0	33124	
8184	0	32932	
8185	0	32836	
8186	0	32700	
8187	0	32692	
8188	0	32673	
8189	0	32876	
8190	0	32916	
8191	0	32900	
8192	0	32812	
8193	0	32541	
8194	0	32484	
8195	0	32652	
8196	0	32780	
8197	0	32887	
8198	0	33088	
8199	0	33294	
8200	0	33280	
8201	0	33154	
8202	0	33168	
8203	0	33077	
8204	0	32908	
8205	0	32768	
8206	0	32804	
8207	0	32948	
8208	0	33048	
8209	0	32968	
8210	0	32724	
8211	0	32556	
8212	0	32508	
8213	0	32432	
8214	0	32496	
8215	0	32720	
8216	0	32704	
8217	0	32588	
8218	0	32557	
8219	0	32780	
8220	0	33000	
8221	0	33017	
8222	0	32784	
8223	0	32712	
8224	0	32549	
8225	0	32673	
8226	0	32696	
8227	0	32684	
8228	0	32628	
8229	0	32540	
8230	0	32532	
8231	0	32732	
8232	0	32980	
8233	0	32808	
8234	0	32736	
8235	0	32830	
8236	0	32990	
8237	0	33048	
8238	0	32732	
8239	0	32744	
8240	0	32688	
8241	0	32536	
8242	0	32584	
8243	0	32752	
8244	0	32976	
8245	0	33077	
8246	0	32996	
8247	0	33004	
8248	0	32812	
8249	0	32548	
8250	0	32468	
8251	0	32652	
8252	0	32812	
8253	0	32656	
8254	0	32568	
8255	0	32696	
8256	0	32796	
8257	0	32836	
8258	0	32762	
8259	0	32972	
8260	0	32997	
8261	0	33000	
8262	0	32960	
8263	0	32945	
8264	0	33012	
8265	0	32852	
8266	0	32768	
8267	0	32745	
8268	0	32756	
8269	0	32668	
8270	0	32568	
8271	0	32516	
8272	0	32632	
8273	0	32504	
8274	0	32644	
8275	0	32660	
8276	0	32748	
8277	0	32692	
8278	0	32596	
8279	0	32744	
8280	0	32981	
8281	0	33052	
8282	0	33168	
8283	0	33116	
8284	0	33045	
8285	0	32885	
8286	0	32752	
8287	0	32721	
8288	0	32652	
8289	0	32292	
8290	0	32192	
8291	0	32352	
8292	0	32549	
8293	0	32461	
8294	0	32640	
8295	0	32556	
8296	0	32721	
8297	0	32922	
8298	0	33128	
8299	0	33520	
8300	0	33672	
8301	0	33488	
8302	0	33252	
8303	0	32896	
8304	0	32892	
8305	0	32846	
8306	0	32828	
8307	0	32798	
8308	0	32808	
8309	0	32908	
8310	0	32808	
8311	0	32824	
8312	0	32876	
8313	0	32661	
8314	0	32860	
8315	0	32832	
8316	0	32725	
8317	0	32576	
8318	0	32380	
8319	0	32612	
8320	0	32688	
8321	0	32576	
8322	0	32864	
8323	0	33080	
8324	0	32988	
8325	0	32612	
8326	0	32376	
8327	0	32445	
8328	0	32364	
8329	0	32380	
8330	0	32612	
8331	0	32880	
8332	0	32816	
8333	0	32804	
8334	0	32908	
8335	0	32752	
8336	0	32700	
8337	0	32544	
8338	0	32311	
8339	0	32676	
8340	0	32919	
8341	0	32989	
8342	0	33056	
8343	0	33008	
8344	0	32974	
8345	0	33008	
8346	0	32980	
8347	0	32893	
8348	0	32876	
8349	0	32880	
8350	0	32760	
8351	0	32684	
8352	0	32604	
8353	0	32504	
8354	0	32537	
8355	0	32593	
8356	0	32720	
8357	0	32796	
8358	0	32856	
8359	0	32956	
8360	0	33012	
8361	0	32984	
8362	0	33016	
8363	0	33000	
8364	0	32878	
8365	0	32820	
8366	0	32636	
8367	0	32496	
8368	0	32460	
8369	0	32385	
8370	0	32356	
8371	0	32464	
8372	0	32276	
8373	0	32146	
8374	0	32464	
8375	0	32616	
8376	0	32264	
8377	0	32380	
8378	0	32644	
8379	0	33105	
8380	0	33688	
8381	0	33924	
8382	0	34152	
8383	0	33944	
8384	0	33768	
8385	0	33508	
8386	0	33328	
8387	0	33332	
8388	0	33152	
8389	0	32824	
8390	0	32700	
8391	0	32553	
8392	0	32336	
8393	0	32160	
8394	0	32156	
8395	0	32196	
8396	0	32328	
8397	0	32470	
8398	0	32484	
8399	0	32776	
8400	0	33000	
8401	0	33028	
8402	0	33004	
8403	0	32692	
8404	0	32472	
8405	0	32481	
8406	0	32504	
8407	0	32628	
8408	0	32872	
8409	0	32744	
8410	0	32644	
8411	0	32524	
8412	0	32493	
8413	0	32540	
8414	0	32765	
8415	0	32732	
8416	0	32788	
8417	0	32732	
8418	0	32556	
8419	0	32756	
8420	0	32692	
8421	0	32644	
8422	0	33144	
8423	0	33146	
8424	0	33012	
8425	0	32960	
8426	0	32888	
8427	0	32708	
8428	0	32662	
8429	0	32712	
8430	0	32660	
8431	0	32808	
8432	0	32893	
8433	0	32744	
8434	0	32752	
8435	0	32892	
8436	0	32872	
8437	0	32648	
8438	0	32512	
8439	0	32848	
8440	0	33009	
8441	0	33005	
8442	0	33000	
8443	0	32964	
8444	0	32884	
8445	0	32916	
8446	0	32928	
8447	0	32832	
8448	0	32774	
8449	0	32632	
8450	0	32536	
8451	0	32460	
8452	0	32448	
8453	0	32564	
8454	0	32528	
8455	0	32537	
8456	0	32732	
8457	0	32624	
8458	0	32644	
8459	0	32864	
8460	0	32992	
8461	0	32920	
8462	0	33236	
8463	0	33218	
8464	0	33084	
8465	0	32944	
8466	0	32572	
8467	0	32332	
8468	0	32308	
8469	0	32030	
8470	0	32296	
8471	0	32604	
8472	0	32760	
8473	0	32873	
8474	0	33020	
8475	0	33152	
8476	0	33188	
8477	0	33248	
8478	0	33232	
8479	0	33328	
8480	0	33440	
8481	0	33204	
8482	0	33352	
8483	0	33304	
8484	0	33152	
8485	0	32840	
8486	0	32476	
8487	0	32364	
8488	0	32333	
8489	0	32252	
8490	0	32322	
8491	0	32284	
8492	0	32236	
8493	0	32192	
8494	0	32300	
8495	0	32486	
8496	0	32589	
8497	0	32724	
8498	0	32841	
8499	0	33188	
8500	0	33348	
8501	0	33152	
8502	0	33240	
8503	0	33156	
8504	0	32932	
8505	0	32672	
8506	0	32516	
8507	0	32580	
8508	0	32702	
8509	0	32660	
8510	0	32540	
8511	0	32528	
8512	0	32480	
8513	0	32356	
8514	0	32484	
8515	0	32644	
8516	0	32850	
8517	0	32996	
8518	0	32720	
8519	0	32778	
8520	0	33012	
8521	0	33096	
8522	0	33104	
8523	0	33080	
8524	0	33036	
8525	0	32964	
8526	0	33000	
8527	0	32937	
8528	0	32824	
8529	0	32636	
8530	0	32677	
8531	0	32712	
8532	0	32752	
8533	0	32772	
8534	0	32660	
8535	0	32544	
8536	0	32449	
8537	0	32412	
8538	0	32512	
8539	0	32748	
8540	0	32772	
8541	0	32852	
8542	0	33141	
8543	0	33080	
8544	0	32996	
8545	0	32740	
8546	0	32624	
8547	0	32612	
8548	0	32692	
8549	0	32740	
8550	0	32784	
8551	0	32820	
8552	0	32656	
8553	0	32404	
8554	0	32526	
8555	0	32832	
8556	0	32993	
8557	0	33088	
8558	0	33132	
8559	0	33249	
8560	0	33264	
8561	0	33092	
8562	0	32888	
8563	0	32656	
8564	0	32464	
8565	0	32408	
8566	0	32388	
8567	0	32676	
8568	0	32876	
8569	0	32844	
8570	0	32776	
8571	0	32856	
8572	0	32884	
8573	0	32784	
8574	0	32996	
8575	0	33076	
8576	0	33208	
8577	0	33118	
8578	0	32925	
8579	0	33012	
8580	0	32952	
8581	0	32682	
8582	0	32712	
8583	0	32672	
8584	0	32512	
8585	0	32460	
8586	0	32549	
8587	0	32552	
8588	0	32633	
8589	0	32572	
8590	0	32624	
8591	0	32684	
8592	0	32660	
8593	0	32460	
8594	0	32508	
8595	0	32640	
8596	0	32702	
8597	0	32532	
8598	0	32444	
8599	0	32622	
8600	0	32748	
8601	0	32704	
8602	0	32840	
8603	0	32916	
8604	0	33054	
8605	0	33324	
8606	0	33169	
8607	0	33000	
8608	0	33118	
8609	0	33108	
8610	0	33065	
8611	0	32886	
8612	0	32860	
8613	0	32908	
