# OpenSignals Text File Format. Version 1
# {"00:07:80:4D:2E:9E": {"position": 0, "device": "biosignalsplux", "device name": "00:07:80:4D:2E:9E", "device connection": "BTH00:07:80:4D:2E:9E", "sampling rate": 1000, "resolution": [16], "firmware version": 774, "comments": "", "keywords": "", "mode": 0, "sync interval": 2, "date": "2020-7-7", "time": "14:3:26.866", "channels": [1], "sensor": ["EMG"], "label": ["CH1"], "column": ["nSeq", "DI", "CH1"], "special": [{}], "digital IO": [0, 1]}}
# EndOfHeader
0	0	32648	
1	0	32768	
2	0	32784	
3	0	32928	
4	0	32934	
5	0	32840	
6	0	32852	
7	0	33028	
8	0	33124	
9	0	33024	
10	0	32916	
11	0	32780	
12	0	32788	
13	0	32749	
14	0	32661	
15	0	32600	
16	0	32568	
17	0	32512	
18	0	32492	
19	0	32476	
20	0	32620	
21	0	32865	
22	0	32802	
23	0	32748	
24	0	32824	
25	0	32880	
26	0	32972	
27	0	32982	
28	0	33000	
29	0	33000	
30	0	33060	
31	0	33020	
32	0	32945	
33	0	32764	
34	0	32636	
35	0	32577	
36	0	32500	
37	0	32428	
38	0	32440	
39	0	32372	
40	0	32552	
41	0	32746	
42	0	32869	
43	0	32884	
44	0	32908	
45	0	33024	
46	0	33000	
47	0	32878	
48	0	32900	
49	0	32780	
50	0	32872	
51	0	33000	
52	0	33037	
53	0	32872	
54	0	32636	
55	0	32564	
56	0	32652	
57	0	32568	
58	0	32412	
59	0	32440	
60	0	32584	
61	0	32812	
62	0	32812	
63	0	32832	
64	0	32864	
65	0	32868	
66	0	32952	
67	0	32948	
68	0	32968	
69	0	32944	
70	0	33032	
71	0	33056	
72	0	32928	
73	0	32805	
74	0	32644	
75	0	32557	
76	0	32588	
77	0	32564	
78	0	32496	
79	0	32432	
80	0	32588	
81	0	32740	
82	0	32812	
83	0	32868	
84	0	32916	
85	0	32904	
86	0	32944	
87	0	33024	
88	0	33024	
89	0	33024	
90	0	32944	
91	0	32916	
92	0	32932	
93	0	32828	
94	0	32709	
95	0	32568	
96	0	32548	
97	0	32536	
98	0	32476	
99	0	32504	
100	0	32604	
101	0	32740	
102	0	32776	
103	0	32928	
104	0	32919	
105	0	32944	
106	0	32842	
107	0	32905	
108	0	32952	
109	0	32924	
110	0	32944	
111	0	33048	
112	0	33032	
113	0	32816	
114	0	32694	
115	0	32608	
116	0	32608	
117	0	32500	
118	0	32476	
119	0	32484	
120	0	32624	
121	0	32757	
122	0	32708	
123	0	32781	
124	0	32896	
125	0	32909	
126	0	32916	
127	0	33020	
128	0	33084	
129	0	32952	
130	0	32948	
131	0	32884	
132	0	32920	
133	0	32772	
134	0	32592	
135	0	32540	
136	0	32576	
137	0	32548	
138	0	32556	
139	0	32608	
140	0	32652	
141	0	32764	
142	0	32640	
143	0	32740	
144	0	32908	
145	0	32982	
146	0	33172	
147	0	33197	
148	0	33072	
149	0	32954	
150	0	32792	
151	0	32760	
152	0	32744	
153	0	32689	
154	0	32504	
155	0	32548	
156	0	32640	
157	0	32620	
158	0	32548	
159	0	32512	
160	0	32588	
161	0	32716	
162	0	32740	
163	0	32796	
164	0	32953	
165	0	33016	
166	0	33012	
167	0	32952	
168	0	32916	
169	0	32896	
170	0	33072	
171	0	32996	
172	0	32977	
173	0	32776	
174	0	32524	
175	0	32520	
176	0	32480	
177	0	32496	
178	0	32404	
179	0	32512	
180	0	32644	
181	0	32702	
182	0	32784	
183	0	32798	
184	0	32856	
185	0	32940	
186	0	33076	
187	0	33057	
188	0	33060	
189	0	32952	
190	0	32924	
191	0	32948	
192	0	32888	
193	0	32726	
194	0	32604	
195	0	32677	
196	0	32717	
197	0	32624	
198	0	32508	
199	0	32452	
200	0	32570	
201	0	32704	
202	0	32772	
203	0	32756	
204	0	32744	
205	0	32870	
206	0	32928	
207	0	33076	
208	0	33060	
209	0	32997	
210	0	32964	
211	0	32952	
212	0	32928	
213	0	32732	
214	0	32744	
215	0	32636	
216	0	32520	
217	0	32516	
218	0	32548	
219	0	32526	
220	0	32596	
221	0	32600	
222	0	32688	
223	0	32884	
224	0	32922	
225	0	32976	
226	0	32932	
227	0	32956	
228	0	32864	
229	0	32868	
230	0	32968	
231	0	32876	
232	0	32968	
233	0	32828	
234	0	32688	
235	0	32704	
236	0	32516	
237	0	32552	
238	0	32408	
239	0	32472	
240	0	32612	
241	0	32752	
242	0	32832	
243	0	32884	
244	0	32768	
245	0	32876	
246	0	33092	
247	0	33008	
248	0	32920	
249	0	32941	
250	0	33068	
251	0	32956	
252	0	32860	
253	0	32812	
254	0	32620	
255	0	32540	
256	0	32404	
257	0	32525	
258	0	32532	
259	0	32418	
260	0	32564	
261	0	32868	
262	0	32873	
263	0	32792	
264	0	32920	
265	0	32920	
266	0	32989	
267	0	32784	
268	0	32832	
269	0	33056	
270	0	33172	
271	0	33089	
272	0	32984	
273	0	32760	
274	0	32725	
275	0	32668	
276	0	32561	
277	0	32453	
278	0	32412	
279	0	32272	
280	0	32532	
281	0	32692	
282	0	32796	
283	0	32868	
284	0	32864	
285	0	32908	
286	0	32957	
287	0	32974	
288	0	32940	
289	0	32916	
290	0	33012	
291	0	33060	
292	0	32912	
293	0	32788	
294	0	32721	
295	0	32672	
296	0	32544	
297	0	32552	
298	0	32520	
299	0	32440	
300	0	32716	
301	0	32736	
302	0	32660	
303	0	32837	
304	0	32832	
305	0	32988	
306	0	32964	
307	0	32820	
308	0	32886	
309	0	32936	
310	0	33004	
311	0	32972	
312	0	32948	
313	0	32788	
314	0	32764	
315	0	32656	
316	0	32484	
317	0	32536	
318	0	32532	
319	0	32432	
320	0	32552	
321	0	32756	
322	0	32768	
323	0	32900	
324	0	32792	
325	0	32840	
326	0	32929	
327	0	32997	
328	0	32820	
329	0	32964	
330	0	32860	
331	0	32916	
332	0	33112	
333	0	32896	
334	0	32808	
335	0	32712	
336	0	32524	
337	0	32468	
338	0	32452	
339	0	32304	
340	0	32609	
341	0	32765	
342	0	32940	
343	0	33044	
344	0	33020	
345	0	32877	
346	0	32801	
347	0	32734	
348	0	32758	
349	0	32804	
350	0	32877	
351	0	32989	
352	0	33068	
353	0	32816	
354	0	32732	
355	0	32570	
356	0	32576	
357	0	32628	
358	0	32676	
359	0	32524	
360	0	32706	
361	0	32676	
362	0	32688	
363	0	32776	
364	0	32844	
365	0	32868	
366	0	32898	
367	0	32952	
368	0	32924	
369	0	32936	
370	0	32936	
371	0	32976	
372	0	32977	
373	0	32968	
374	0	32872	
375	0	32641	
376	0	32480	
377	0	32404	
378	0	32440	
379	0	32472	
380	0	32548	
381	0	32756	
382	0	32748	
383	0	32860	
384	0	32924	
385	0	32944	
386	0	33048	
387	0	32929	
388	0	32932	
389	0	32800	
390	0	32865	
391	0	32924	
392	0	32964	
393	0	32800	
394	0	32804	
395	0	32736	
396	0	32568	
397	0	32456	
398	0	32408	
399	0	32423	
400	0	32664	
401	0	32904	
402	0	32800	
403	0	32800	
404	0	32812	
405	0	32796	
406	0	32836	
407	0	32905	
408	0	32876	
409	0	32900	
410	0	33032	
411	0	33244	
412	0	33156	
413	0	32804	
414	0	32612	
415	0	32560	
416	0	32536	
417	0	32572	
418	0	32646	
419	0	32516	
420	0	32580	
421	0	32752	
422	0	32712	
423	0	32836	
424	0	32820	
425	0	32772	
426	0	32992	
427	0	32936	
428	0	32940	
429	0	32879	
430	0	32884	
431	0	32916	
432	0	32972	
433	0	32852	
434	0	32784	
435	0	32800	
436	0	32528	
437	0	32536	
438	0	32504	
439	0	32392	
440	0	32540	
441	0	32824	
442	0	32960	
443	0	32948	
444	0	32744	
445	0	32724	
446	0	32736	
447	0	32744	
448	0	32896	
449	0	33022	
450	0	32980	
451	0	33033	
452	0	32960	
453	0	32804	
454	0	32724	
455	0	32668	
456	0	32592	
457	0	32614	
458	0	32584	
459	0	32440	
460	0	32552	
461	0	32618	
462	0	32760	
463	0	32892	
464	0	32888	
465	0	33033	
466	0	32920	
467	0	32926	
468	0	32852	
469	0	32896	
470	0	32942	
471	0	32976	
472	0	33052	
473	0	32824	
474	0	32780	
475	0	32712	
476	0	32605	
477	0	32560	
478	0	32408	
479	0	32336	
480	0	32436	
481	0	32748	
482	0	32828	
483	0	33008	
484	0	32944	
485	0	32992	
486	0	32904	
487	0	32908	
488	0	32764	
489	0	32848	
490	0	32896	
491	0	33052	
492	0	32972	
493	0	32828	
494	0	32820	
495	0	32656	
496	0	32592	
497	0	32520	
498	0	32596	
499	0	32420	
500	0	32500	
501	0	32798	
502	0	32920	
503	0	32932	
504	0	32741	
505	0	32736	
506	0	33060	
507	0	32956	
508	0	32820	
509	0	33006	
510	0	32960	
511	0	32844	
512	0	32924	
513	0	32776	
514	0	32832	
515	0	32628	
516	0	32556	
517	0	32496	
518	0	32492	
519	0	32440	
520	0	32677	
521	0	32840	
522	0	32656	
523	0	32796	
524	0	32844	
525	0	32848	
526	0	32948	
527	0	32984	
528	0	32908	
529	0	33032	
530	0	33065	
531	0	33040	
532	0	32976	
533	0	32760	
534	0	32745	
535	0	32544	
536	0	32476	
537	0	32464	
538	0	32476	
539	0	32428	
540	0	32644	
541	0	32812	
542	0	32836	
543	0	32876	
544	0	32909	
545	0	32928	
546	0	32908	
547	0	32836	
548	0	32876	
549	0	33052	
550	0	32964	
551	0	32972	
552	0	33044	
553	0	32808	
554	0	32840	
555	0	32616	
556	0	32508	
557	0	32484	
558	0	32528	
559	0	32476	
560	0	32608	
561	0	32684	
562	0	32732	
563	0	32744	
564	0	32800	
565	0	32892	
566	0	32884	
567	0	32808	
568	0	32908	
569	0	33144	
570	0	33120	
571	0	33056	
572	0	33004	
573	0	32700	
574	0	32700	
575	0	32652	
576	0	32532	
577	0	32556	
578	0	32548	
579	0	32524	
580	0	32704	
581	0	32820	
582	0	32712	
583	0	32780	
584	0	32756	
585	0	32880	
586	0	32952	
587	0	32868	
588	0	32884	
589	0	32988	
590	0	32960	
591	0	33032	
592	0	33080	
593	0	32848	
594	0	32808	
595	0	32652	
596	0	32500	
597	0	32696	
598	0	32700	
599	0	32372	
600	0	32444	
601	0	32700	
602	0	32724	
603	0	32849	
604	0	32736	
605	0	32880	
606	0	32796	
607	0	32940	
608	0	32873	
609	0	33053	
610	0	33040	
611	0	32928	
612	0	32896	
613	0	32768	
614	0	32596	
615	0	32556	
616	0	32590	
617	0	32636	
618	0	32460	
619	0	32440	
620	0	32654	
621	0	32884	
622	0	32800	
623	0	32996	
624	0	32868	
625	0	32782	
626	0	32877	
627	0	32901	
628	0	32932	
629	0	32924	
630	0	33026	
631	0	33084	
632	0	32928	
633	0	32744	
634	0	32684	
635	0	32701	
636	0	32568	
637	0	32528	
638	0	32536	
639	0	32388	
640	0	32512	
641	0	32656	
642	0	32776	
643	0	32848	
644	0	32992	
645	0	32844	
646	0	32996	
647	0	32928	
648	0	32876	
649	0	32888	
650	0	32980	
651	0	33024	
652	0	33062	
653	0	32893	
654	0	32740	
655	0	32680	
656	0	32512	
657	0	32524	
658	0	32540	
659	0	32516	
660	0	32545	
661	0	32612	
662	0	32656	
663	0	32800	
664	0	32960	
665	0	33006	
666	0	32972	
667	0	32856	
668	0	32856	
669	0	32846	
670	0	32848	
671	0	32932	
672	0	32983	
673	0	32856	
674	0	32832	
675	0	32736	
676	0	32500	
677	0	32532	
678	0	32592	
679	0	32468	
680	0	32576	
681	0	32780	
682	0	32724	
683	0	32820	
684	0	32888	
685	0	32892	
686	0	33060	
687	0	32968	
688	0	32916	
689	0	32884	
690	0	32953	
691	0	33128	
692	0	32976	
693	0	32832	
694	0	32736	
695	0	32597	
696	0	32452	
697	0	32492	
698	0	32596	
699	0	32528	
700	0	32520	
701	0	32568	
702	0	32552	
703	0	32726	
704	0	32860	
705	0	33092	
706	0	33156	
707	0	33064	
708	0	32872	
709	0	32936	
710	0	33068	
711	0	32996	
712	0	32900	
713	0	32832	
714	0	32662	
715	0	32608	
716	0	32484	
717	0	32484	
718	0	32544	
719	0	32388	
720	0	32674	
721	0	32916	
722	0	32720	
723	0	32700	
724	0	32704	
725	0	32812	
726	0	32924	
727	0	32968	
728	0	32928	
729	0	33108	
730	0	33032	
731	0	32984	
732	0	32943	
733	0	32702	
734	0	32748	
735	0	32656	
736	0	32460	
737	0	32577	
738	0	32640	
739	0	32448	
740	0	32416	
741	0	32556	
742	0	32748	
743	0	32788	
744	0	32926	
745	0	32888	
746	0	32964	
747	0	32936	
748	0	32924	
749	0	33084	
750	0	32904	
751	0	32917	
752	0	33000	
753	0	32852	
754	0	32812	
755	0	32772	
756	0	32518	
757	0	32584	
758	0	32596	
759	0	32396	
760	0	32380	
761	0	32612	
762	0	32749	
763	0	32844	
764	0	32852	
765	0	32894	
766	0	32960	
767	0	32893	
768	0	32877	
769	0	32928	
770	0	32916	
771	0	33028	
772	0	33031	
773	0	32908	
774	0	32852	
775	0	32668	
776	0	32652	
777	0	32576	
778	0	32492	
779	0	32278	
780	0	32314	
781	0	32560	
782	0	32724	
783	0	33028	
784	0	32972	
785	0	32917	
786	0	32893	
787	0	32820	
788	0	32820	
789	0	33072	
790	0	33064	
791	0	32996	
792	0	32796	
793	0	32780	
794	0	32788	
795	0	32780	
796	0	32564	
797	0	32592	
798	0	32448	
799	0	32376	
800	0	32484	
801	0	32768	
802	0	32824	
803	0	32824	
804	0	32876	
805	0	32996	
806	0	33030	
807	0	32948	
808	0	32892	
809	0	32957	
810	0	32828	
811	0	32873	
812	0	32960	
813	0	32868	
814	0	32772	
815	0	32685	
816	0	32644	
817	0	32550	
818	0	32524	
819	0	32460	
820	0	32600	
821	0	32676	
822	0	32637	
823	0	32744	
824	0	32848	
825	0	32924	
826	0	32980	
827	0	32884	
828	0	32856	
829	0	32976	
830	0	32920	
831	0	33036	
832	0	32944	
833	0	32868	
834	0	32788	
835	0	32672	
836	0	32544	
837	0	32540	
838	0	32576	
839	0	32432	
840	0	32480	
841	0	32600	
842	0	32720	
843	0	32812	
844	0	32860	
845	0	32852	
846	0	32928	
847	0	32924	
848	0	33045	
849	0	33068	
850	0	33064	
851	0	33028	
852	0	32956	
853	0	32868	
854	0	32742	
855	0	32720	
856	0	32644	
857	0	32536	
858	0	32532	
859	0	32420	
860	0	32377	
861	0	32564	
862	0	32736	
863	0	32936	
864	0	33070	
865	0	32925	
866	0	32828	
867	0	32736	
868	0	32888	
869	0	32932	
870	0	32932	
871	0	32989	
872	0	33008	
873	0	32813	
874	0	32696	
875	0	32672	
876	0	32484	
877	0	32544	
878	0	32576	
879	0	32485	
880	0	32492	
881	0	32672	
882	0	32716	
883	0	32876	
884	0	33024	
885	0	32913	
886	0	33012	
887	0	32980	
888	0	32772	
889	0	32932	
890	0	33020	
891	0	32908	
892	0	32836	
893	0	32754	
894	0	32780	
895	0	32793	
896	0	32624	
897	0	32624	
898	0	32552	
899	0	32340	
900	0	32438	
901	0	32688	
902	0	32944	
903	0	32948	
904	0	32840	
905	0	32864	
906	0	32956	
907	0	32928	
908	0	32916	
909	0	32888	
910	0	32980	
911	0	32980	
912	0	33004	
913	0	32820	
914	0	32812	
915	0	32720	
916	0	32584	
917	0	32460	
918	0	32616	
919	0	32420	
920	0	32372	
921	0	32648	
922	0	32760	
923	0	32928	
924	0	32972	
925	0	32928	
926	0	32864	
927	0	32924	
928	0	32896	
929	0	32948	
930	0	32836	
931	0	32928	
932	0	33032	
933	0	32849	
934	0	32876	
935	0	32732	
936	0	32506	
937	0	32496	
938	0	32616	
939	0	32484	
940	0	32468	
941	0	32636	
942	0	32772	
943	0	32720	
944	0	32820	
945	0	32920	
946	0	32992	
947	0	33008	
948	0	32918	
949	0	32948	
950	0	33024	
951	0	33096	
952	0	32912	
953	0	32776	
954	0	32684	
955	0	32788	
956	0	32676	
957	0	32448	
958	0	32596	
959	0	32588	
960	0	32336	
961	0	32524	
962	0	32596	
963	0	32784	
964	0	32968	
965	0	32944	
966	0	32944	
967	0	32936	
968	0	33080	
969	0	32820	
970	0	32872	
971	0	33036	
972	0	32924	
973	0	32828	
974	0	32948	
975	0	32764	
976	0	32532	
977	0	32468	
978	0	32604	
979	0	32486	
980	0	32330	
981	0	32620	
982	0	32760	
983	0	32868	
984	0	32932	
985	0	32948	
986	0	32912	
987	0	33060	
988	0	33076	
989	0	32877	
990	0	32860	
991	0	32836	
992	0	32982	
993	0	32876	
994	0	32732	
995	0	32762	
996	0	32636	
997	0	32553	
998	0	32536	
999	0	32517	
1000	0	32412	
1001	0	32652	
1002	0	32784	
1003	0	32924	
1004	0	32932	
1005	0	32884	
1006	0	32800	
1007	0	32876	
1008	0	33008	
1009	0	32980	
1010	0	32960	
1011	0	32870	
1012	0	32940	
1013	0	32869	
1014	0	32837	
1015	0	32716	
1016	0	32544	
1017	0	32448	
1018	0	32520	
1019	0	32580	
1020	0	32472	
1021	0	32600	
1022	0	32712	
1023	0	32848	
1024	0	32848	
1025	0	32864	
1026	0	32909	
1027	0	32912	
1028	0	32928	
1029	0	32872	
1030	0	33040	
1031	0	33012	
1032	0	33072	
1033	0	32860	
1034	0	32724	
1035	0	32756	
1036	0	32648	
1037	0	32436	
1038	0	32448	
1039	0	32544	
1040	0	32436	
1041	0	32652	
1042	0	32828	
1043	0	32873	
1044	0	32844	
1045	0	32868	
1046	0	32908	
1047	0	32916	
1048	0	32852	
1049	0	32844	
1050	0	33024	
1051	0	33144	
1052	0	33016	
1053	0	32928	
1054	0	32816	
1055	0	32732	
1056	0	32592	
1057	0	32416	
1058	0	32536	
1059	0	32557	
1060	0	32428	
1061	0	32557	
1062	0	32576	
1063	0	32776	
1064	0	32956	
1065	0	32904	
1066	0	32900	
1067	0	32928	
1068	0	32997	
1069	0	33024	
1070	0	33024	
1071	0	32900	
1072	0	32956	
1073	0	32956	
1074	0	32928	
1075	0	32744	
1076	0	32512	
1077	0	32440	
1078	0	32492	
1079	0	32484	
1080	0	32432	
1081	0	32720	
1082	0	32772	
1083	0	32876	
1084	0	32908	
1085	0	32868	
1086	0	32912	
1087	0	32848	
1088	0	32902	
1089	0	32812	
1090	0	33064	
1091	0	32996	
1092	0	33060	
1093	0	32952	
1094	0	32812	
1095	0	32800	
1096	0	32636	
1097	0	32460	
1098	0	32528	
1099	0	32680	
1100	0	32440	
1101	0	32548	
1102	0	32576	
1103	0	32812	
1104	0	32872	
1105	0	32872	
1106	0	32972	
1107	0	32944	
1108	0	32844	
1109	0	32820	
1110	0	32920	
1111	0	32936	
1112	0	33056	
1113	0	33084	
1114	0	32856	
1115	0	32768	
1116	0	32520	
1117	0	32481	
1118	0	32493	
1119	0	32628	
1120	0	32461	
1121	0	32614	
1122	0	32648	
1123	0	32596	
1124	0	32812	
1125	0	33004	
1126	0	33008	
1127	0	33004	
1128	0	32964	
1129	0	32888	
1130	0	32862	
1131	0	32988	
1132	0	33028	
1133	0	32928	
1134	0	32760	
1135	0	32701	
1136	0	32708	
1137	0	32444	
1138	0	32458	
1139	0	32452	
1140	0	32420	
1141	0	32712	
1142	0	32868	
1143	0	32856	
1144	0	32904	
1145	0	32900	
1146	0	32744	
1147	0	32876	
1148	0	32896	
1149	0	32976	
1150	0	32994	
1151	0	32956	
1152	0	32960	
1153	0	32916	
1154	0	32740	
1155	0	32812	
1156	0	32706	
1157	0	32412	
1158	0	32484	
1159	0	32548	
1160	0	32428	
1161	0	32628	
1162	0	32716	
1163	0	32776	
1164	0	32788	
1165	0	32776	
1166	0	32880	
1167	0	32965	
1168	0	32960	
1169	0	32892	
1170	0	32820	
1171	0	32940	
1172	0	32992	
1173	0	33072	
1174	0	32964	
1175	0	32717	
1176	0	32512	
1177	0	32452	
1178	0	32504	
1179	0	32528	
1180	0	32532	
1181	0	32589	
1182	0	32824	
1183	0	32776	
1184	0	32864	
1185	0	32888	
1186	0	32980	
1187	0	32884	
1188	0	32912	
1189	0	32933	
1190	0	32989	
1191	0	32852	
1192	0	32904	
1193	0	32948	
1194	0	32821	
1195	0	32724	
1196	0	32676	
1197	0	32668	
1198	0	32560	
1199	0	32564	
1200	0	32564	
1201	0	32448	
1202	0	32596	
1203	0	32681	
1204	0	32740	
1205	0	32790	
1206	0	32896	
1207	0	32952	
1208	0	32954	
1209	0	32992	
1210	0	32957	
1211	0	32969	
1212	0	33000	
1213	0	32956	
1214	0	32844	
1215	0	32724	
1216	0	32544	
1217	0	32592	
1218	0	32544	
1219	0	32452	
1220	0	32393	
1221	0	32621	
1222	0	32832	
1223	0	32992	
1224	0	32988	
1225	0	32913	
1226	0	32716	
1227	0	32734	
1228	0	32804	
1229	0	32836	
1230	0	32868	
1231	0	32940	
1232	0	33048	
1233	0	33112	
1234	0	32808	
1235	0	32676	
1236	0	32620	
1237	0	32552	
1238	0	32600	
1239	0	32384	
1240	0	32472	
1241	0	32612	
1242	0	32756	
1243	0	32821	
1244	0	32916	
1245	0	32845	
1246	0	32912	
1247	0	32940	
1248	0	32948	
1249	0	32896	
1250	0	32968	
1251	0	33056	
1252	0	33096	
1253	0	32872	
1254	0	32740	
1255	0	32696	
1256	0	32546	
1257	0	32510	
1258	0	32468	
1259	0	32400	
1260	0	32588	
1261	0	32704	
1262	0	32860	
1263	0	32828	
1264	0	32856	
1265	0	32796	
1266	0	32880	
1267	0	32908	
1268	0	32864	
1269	0	32884	
1270	0	32904	
1271	0	33032	
1272	0	33044	
1273	0	32892	
1274	0	32836	
1275	0	32748	
1276	0	32592	
1277	0	32485	
1278	0	32492	
1279	0	32444	
1280	0	32420	
1281	0	32552	
1282	0	32768	
1283	0	32836	
1284	0	32896	
1285	0	32993	
1286	0	32876	
1287	0	32940	
1288	0	33004	
1289	0	33096	
1290	0	33012	
1291	0	33028	
1292	0	32912	
1293	0	32781	
1294	0	32732	
1295	0	32676	
1296	0	32740	
1297	0	32584	
1298	0	32424	
1299	0	32304	
1300	0	32376	
1301	0	32512	
1302	0	32856	
1303	0	32836	
1304	0	32900	
1305	0	32824	
1306	0	32948	
1307	0	32912	
1308	0	33104	
1309	0	33160	
1310	0	32964	
1311	0	32713	
1312	0	32800	
1313	0	32872	
1314	0	32828	
1315	0	32752	
1316	0	32668	
1317	0	32616	
1318	0	32608	
1319	0	32440	
1320	0	32452	
1321	0	32534	
1322	0	32729	
1323	0	32710	
1324	0	32900	
1325	0	32892	
1326	0	32936	
1327	0	32936	
1328	0	33020	
1329	0	33056	
1330	0	32964	
1331	0	32984	
1332	0	32932	
1333	0	32913	
1334	0	32660	
1335	0	32612	
1336	0	32669	
1337	0	32612	
1338	0	32448	
1339	0	32428	
1340	0	32488	
1341	0	32576	
1342	0	32724	
1343	0	32844	
1344	0	32852	
1345	0	32917	
1346	0	32924	
1347	0	32928	
1348	0	32968	
1349	0	32888	
1350	0	33012	
1351	0	33104	
1352	0	33029	
1353	0	32984	
1354	0	32825	
1355	0	32592	
1356	0	32512	
1357	0	32481	
1358	0	32404	
1359	0	32440	
1360	0	32670	
1361	0	32736	
1362	0	32776	
1363	0	32826	
1364	0	32808	
1365	0	32984	
1366	0	32916	
1367	0	32808	
1368	0	32896	
1369	0	32972	
1370	0	32892	
1371	0	32933	
1372	0	32828	
1373	0	32853	
1374	0	32760	
1375	0	32704	
1376	0	32700	
1377	0	32646	
1378	0	32560	
1379	0	32412	
1380	0	32524	
1381	0	32620	
1382	0	32849	
1383	0	32804	
1384	0	32950	
1385	0	33028	
1386	0	32956	
1387	0	32712	
1388	0	32780	
1389	0	32860	
1390	0	32786	
1391	0	32988	
1392	0	33208	
1393	0	33228	
1394	0	32932	
1395	0	32632	
1396	0	32468	
1397	0	32380	
1398	0	32396	
1399	0	32432	
1400	0	32568	
1401	0	32568	
1402	0	32664	
1403	0	32762	
1404	0	32836	
1405	0	32880	
1406	0	32876	
1407	0	32910	
1408	0	33012	
1409	0	33144	
1410	0	33188	
1411	0	33228	
1412	0	33144	
1413	0	33076	
1414	0	32660	
1415	0	32600	
1416	0	32448	
1417	0	32384	
1418	0	32436	
1419	0	32352	
1420	0	32408	
1421	0	32680	
1422	0	32768	
1423	0	32800	
1424	0	32868	
1425	0	32844	
1426	0	32916	
1427	0	32900	
1428	0	32892	
1429	0	32928	
1430	0	33072	
1431	0	33120	
1432	0	33080	
1433	0	32940	
1434	0	32616	
1435	0	32508	
1436	0	32576	
1437	0	32652	
1438	0	32612	
1439	0	32504	
1440	0	32553	
1441	0	32544	
1442	0	32600	
1443	0	32736	
1444	0	32836	
1445	0	32902	
1446	0	32879	
1447	0	32940	
1448	0	32956	
1449	0	32992	
1450	0	32944	
1451	0	33012	
1452	0	32956	
1453	0	32908	
1454	0	32832	
1455	0	32637	
1456	0	32661	
1457	0	32538	
1458	0	32552	
1459	0	32448	
1460	0	32468	
1461	0	32672	
1462	0	32752	
1463	0	32792	
1464	0	32900	
1465	0	32873	
1466	0	32948	
1467	0	32872	
1468	0	32968	
1469	0	32984	
1470	0	32940	
1471	0	32952	
1472	0	33004	
1473	0	32901	
1474	0	32774	
1475	0	32624	
1476	0	32636	
1477	0	32608	
1478	0	32656	
1479	0	32428	
1480	0	32404	
1481	0	32640	
1482	0	32808	
1483	0	32749	
1484	0	32816	
1485	0	32864	
1486	0	32908	
1487	0	32956	
1488	0	32960	
1489	0	32944	
1490	0	32952	
1491	0	32934	
1492	0	32924	
1493	0	32940	
1494	0	32800	
1495	0	32688	
1496	0	32608	
1497	0	32556	
1498	0	32432	
1499	0	32485	
1500	0	32496	
1501	0	32676	
1502	0	32716	
1503	0	32784	
1504	0	32894	
1505	0	33020	
1506	0	32940	
1507	0	32920	
1508	0	32900	
1509	0	32876	
1510	0	32992	
1511	0	33168	
1512	0	33156	
1513	0	32868	
1514	0	32544	
1515	0	32516	
1516	0	32516	
1517	0	32716	
1518	0	32604	
1519	0	32448	
1520	0	32349	
1521	0	32480	
1522	0	32656	
1523	0	32780	
1524	0	32884	
1525	0	32932	
1526	0	32932	
1527	0	32941	
1528	0	32888	
1529	0	32940	
1530	0	32956	
1531	0	32910	
1532	0	33008	
1533	0	33133	
1534	0	32943	
1535	0	32640	
1536	0	32568	
1537	0	32524	
1538	0	32512	
1539	0	32424	
1540	0	32540	
1541	0	32564	
1542	0	32712	
1543	0	32802	
1544	0	32900	
1545	0	32916	
1546	0	32948	
1547	0	32900	
1548	0	32932	
1549	0	32973	
1550	0	32952	
1551	0	32928	
1552	0	32892	
1553	0	32837	
1554	0	32832	
1555	0	32772	
1556	0	32688	
1557	0	32600	
1558	0	32564	
1559	0	32428	
1560	0	32356	
1561	0	32592	
1562	0	32836	
1563	0	32925	
1564	0	32988	
1565	0	32870	
1566	0	32832	
1567	0	32836	
1568	0	32844	
1569	0	32916	
1570	0	32897	
1571	0	32952	
1572	0	33024	
1573	0	32964	
1574	0	32836	
1575	0	32653	
1576	0	32608	
1577	0	32560	
1578	0	32504	
1579	0	32517	
1580	0	32484	
1581	0	32580	
1582	0	32712	
1583	0	32836	
1584	0	32816	
1585	0	32896	
1586	0	32854	
1587	0	32896	
1588	0	32928	
1589	0	32860	
1590	0	32920	
1591	0	32912	
1592	0	32936	
1593	0	32988	
1594	0	32864	
1595	0	32617	
1596	0	32688	
1597	0	32672	
1598	0	32606	
1599	0	32448	
1600	0	32408	
1601	0	32520	
1602	0	32640	
1603	0	32716	
1604	0	32816	
1605	0	33008	
1606	0	33140	
1607	0	33092	
1608	0	32952	
1609	0	32901	
1610	0	32812	
1611	0	32784	
1612	0	32894	
1613	0	32910	
1614	0	32880	
1615	0	32756	
1616	0	32644	
1617	0	32400	
1618	0	32365	
1619	0	32420	
1620	0	32612	
1621	0	32664	
1622	0	32740	
1623	0	32776	
1624	0	32860	
1625	0	32897	
1626	0	32824	
1627	0	33004	
1628	0	32956	
1629	0	32844	
1630	0	32988	
1631	0	33064	
1632	0	33000	
1633	0	32912	
1634	0	32748	
1635	0	32596	
1636	0	32692	
1637	0	32604	
1638	0	32560	
1639	0	32484	
1640	0	32452	
1641	0	32552	
1642	0	32756	
1643	0	32788	
1644	0	32756	
1645	0	32908	
1646	0	32960	
1647	0	32920	
1648	0	32880	
1649	0	32936	
1650	0	33028	
1651	0	32948	
1652	0	33025	
1653	0	32997	
1654	0	32844	
1655	0	32644	
1656	0	32654	
1657	0	32593	
1658	0	32428	
1659	0	32460	
1660	0	32488	
1661	0	32620	
1662	0	32800	
1663	0	32880	
1664	0	32888	
1665	0	32836	
1666	0	32848	
1667	0	32788	
1668	0	32924	
1669	0	33000	
1670	0	32960	
1671	0	33060	
1672	0	33249	
1673	0	33020	
1674	0	32684	
1675	0	32304	
1676	0	32297	
1677	0	32504	
1678	0	32631	
1679	0	32612	
1680	0	32496	
1681	0	32632	
1682	0	32752	
1683	0	32756	
1684	0	32768	
1685	0	32801	
1686	0	32824	
1687	0	32916	
1688	0	33040	
1689	0	33072	
1690	0	33016	
1691	0	33028	
1692	0	33152	
1693	0	33305	
1694	0	32920	
1695	0	32704	
1696	0	32492	
1697	0	32382	
1698	0	32480	
1699	0	32392	
1700	0	32168	
1701	0	32324	
1702	0	32644	
1703	0	32808	
1704	0	32856	
1705	0	32868	
1706	0	33028	
1707	0	32996	
1708	0	33012	
1709	0	32936	
1710	0	32900	
1711	0	32936	
1712	0	33080	
1713	0	33104	
1714	0	32816	
1715	0	32749	
1716	0	32624	
1717	0	32525	
1718	0	32484	
1719	0	32526	
1720	0	32428	
1721	0	32417	
1722	0	32644	
1723	0	32808	
1724	0	32848	
1725	0	32897	
1726	0	32942	
1727	0	32958	
1728	0	32948	
1729	0	32920	
1730	0	32928	
1731	0	32904	
1732	0	32908	
1733	0	33060	
1734	0	32856	
1735	0	32813	
1736	0	32696	
1737	0	32504	
1738	0	32456	
1739	0	32600	
1740	0	32352	
1741	0	32504	
1742	0	32788	
1743	0	32772	
1744	0	32900	
1745	0	32844	
1746	0	32942	
1747	0	33034	
1748	0	33016	
1749	0	32956	
1750	0	33096	
1751	0	32974	
1752	0	32976	
1753	0	32880	
1754	0	32655	
1755	0	32623	
1756	0	32524	
1757	0	32364	
1758	0	32484	
1759	0	32664	
1760	0	32552	
1761	0	32660	
1762	0	32872	
1763	0	32944	
1764	0	32828	
1765	0	32840	
1766	0	32897	
1767	0	32804	
1768	0	32968	
1769	0	33152	
1770	0	33130	
1771	0	32921	
1772	0	32964	
1773	0	33080	
1774	0	32800	
1775	0	32600	
1776	0	32372	
1777	0	32261	
1778	0	32388	
1779	0	32540	
1780	0	32382	
1781	0	32428	
1782	0	32692	
1783	0	32776	
1784	0	32900	
1785	0	32876	
1786	0	32864	
1787	0	33026	
1788	0	33076	
1789	0	32964	
1790	0	32984	
1791	0	32960	
1792	0	32856	
1793	0	32840	
1794	0	32640	
1795	0	32700	
1796	0	32588	
1797	0	32392	
1798	0	32458	
1799	0	32576	
1800	0	32433	
1801	0	32592	
1802	0	32896	
1803	0	32940	
1804	0	33084	
1805	0	32784	
1806	0	32756	
1807	0	32916	
1808	0	32824	
1809	0	32672	
1810	0	32621	
1811	0	32772	
1812	0	32984	
1813	0	33080	
1814	0	32904	
1815	0	32940	
1816	0	32976	
1817	0	32804	
1818	0	32740	
1819	0	32700	
1820	0	32596	
1821	0	32676	
1822	0	32928	
1823	0	32884	
1824	0	32892	
1825	0	32744	
1826	0	32557	
1827	0	32816	
1828	0	32900	
1829	0	32928	
1830	0	33124	
1831	0	33222	
1832	0	33084	
1833	0	33084	
1834	0	32708	
1835	0	32552	
1836	0	32536	
1837	0	32444	
1838	0	32600	
1839	0	32456	
1840	0	32432	
1841	0	32780	
1842	0	33196	
1843	0	33088	
1844	0	32928	
1845	0	33028	
1846	0	33232	
1847	0	33188	
1848	0	33196	
1849	0	33236	
1850	0	32944	
1851	0	32664	
1852	0	32826	
1853	0	32876	
1854	0	32320	
1855	0	32264	
1856	0	32388	
1857	0	32124	
1858	0	32264	
1859	0	32448	
1860	0	32544	
1861	0	32444	
1862	0	32573	
1863	0	32698	
1864	0	32685	
1865	0	32736	
1866	0	32956	
1867	0	33120	
1868	0	33244	
1869	0	33132	
1870	0	33108	
1871	0	32956	
1872	0	32924	
1873	0	32869	
1874	0	32788	
1875	0	32832	
1876	0	32548	
1877	0	32480	
1878	0	32380	
1879	0	32244	
1880	0	32220	
1881	0	32452	
1882	0	32662	
1883	0	32876	
1884	0	32972	
1885	0	32928	
1886	0	32988	
1887	0	33066	
1888	0	33188	
1889	0	33149	
1890	0	33100	
1891	0	33108	
1892	0	33132	
1893	0	33053	
1894	0	32784	
1895	0	32780	
1896	0	32677	
1897	0	32552	
1898	0	32366	
1899	0	32256	
1900	0	32092	
1901	0	32408	
1902	0	32606	
1903	0	32788	
1904	0	32928	
1905	0	32940	
1906	0	32996	
1907	0	33108	
1908	0	33072	
1909	0	33068	
1910	0	33096	
1911	0	33158	
1912	0	33316	
1913	0	33256	
1914	0	33028	
1915	0	32692	
1916	0	32396	
1917	0	32241	
1918	0	31756	
1919	0	31516	
1920	0	31708	
1921	0	32060	
1922	0	32608	
1923	0	33056	
1924	0	32876	
1925	0	32608	
1926	0	32489	
1927	0	32512	
1928	0	32630	
1929	0	32776	
1930	0	33069	
1931	0	33140	
1932	0	33472	
1933	0	33844	
1934	0	34028	
1935	0	33918	
1936	0	33708	
1937	0	33444	
1938	0	32973	
1939	0	32732	
1940	0	32508	
1941	0	32800	
1942	0	32920	
1943	0	32964	
1944	0	32588	
1945	0	32172	
1946	0	31736	
1947	0	31536	
1948	0	31604	
1949	0	32076	
1950	0	32576	
1951	0	32692	
1952	0	32652	
1953	0	32716	
1954	0	32754	
1955	0	32901	
1956	0	32780	
1957	0	33044	
1958	0	33272	
1959	0	33164	
1960	0	33072	
1961	0	33569	
1962	0	33888	
1963	0	34032	
1964	0	34252	
1965	0	34160	
1966	0	33432	
1967	0	32341	
1968	0	31257	
1969	0	30929	
1970	0	31420	
1971	0	31896	
1972	0	32510	
1973	0	32976	
1974	0	32732	
1975	0	32848	
1976	0	33140	
1977	0	33240	
1978	0	33168	
1979	0	32708	
1980	0	32672	
1981	0	32920	
1982	0	32968	
1983	0	33124	
1984	0	33412	
1985	0	33428	
1986	0	33504	
1987	0	33606	
1988	0	32656	
1989	0	31244	
1990	0	30656	
1991	0	31216	
1992	0	31496	
1993	0	31716	
1994	0	32252	
1995	0	32964	
1996	0	33320	
1997	0	33756	
1998	0	34196	
1999	0	33988	
2000	0	33696	
2001	0	33520	
2002	0	33416	
2003	0	33496	
2004	0	33528	
2005	0	33672	
2006	0	33460	
2007	0	32704	
2008	0	32064	
2009	0	31532	
2010	0	31568	
2011	0	31512	
2012	0	31478	
2013	0	31912	
2014	0	32182	
2015	0	32496	
2016	0	32737	
2017	0	32746	
2018	0	32816	
2019	0	33108	
2020	0	33120	
2021	0	33084	
2022	0	33312	
2023	0	33540	
2024	0	33504	
2025	0	33392	
2026	0	33552	
2027	0	33332	
2028	0	33088	
2029	0	32965	
2030	0	32312	
2031	0	31512	
2032	0	31028	
2033	0	31252	
2034	0	31568	
2035	0	31712	
2036	0	31924	
2037	0	32268	
2038	0	32708	
2039	0	33124	
2040	0	33224	
2041	0	33614	
2042	0	33860	
2043	0	34128	
2044	0	34096	
2045	0	33964	
2046	0	33832	
2047	0	33676	
2048	0	33468	
2049	0	33292	
2050	0	32953	
2051	0	32792	
2052	0	32924	
2053	0	32808	
2054	0	32120	
2055	0	31654	
2056	0	30324	
2057	0	30096	
2058	0	30373	
2059	0	31080	
2060	0	31517	
2061	0	32440	
2062	0	33356	
2063	0	33610	
2064	0	32838	
2065	0	32928	
2066	0	33606	
2067	0	33948	
2068	0	33808	
2069	0	33832	
2070	0	33996	
2071	0	33980	
2072	0	34001	
2073	0	34408	
2074	0	34576	
2075	0	34480	
2076	0	34102	
2077	0	33360	
2078	0	32328	
2079	0	31848	
2080	0	31556	
2081	0	31456	
2082	0	31754	
2083	0	31516	
2084	0	31852	
2085	0	31944	
2086	0	31720	
2087	0	31356	
2088	0	31468	
2089	0	31300	
2090	0	32144	
2091	0	32972	
2092	0	32948	
2093	0	33392	
2094	0	33840	
2095	0	33844	
2096	0	33984	
2097	0	34160	
2098	0	34308	
2099	0	34268	
2100	0	34032	
2101	0	33732	
2102	0	33600	
2103	0	33180	
2104	0	32701	
2105	0	32433	
2106	0	32548	
2107	0	31616	
2108	0	29808	
2109	0	30172	
2110	0	31008	
2111	0	31728	
2112	0	32613	
2113	0	33568	
2114	0	33921	
2115	0	33988	
2116	0	34152	
2117	0	33940	
2118	0	33476	
2119	0	33004	
2120	0	32544	
2121	0	32484	
2122	0	32908	
2123	0	33060	
2124	0	33068	
2125	0	32732	
2126	0	32224	
2127	0	32008	
2128	0	31886	
2129	0	32056	
2130	0	32236	
2131	0	32520	
2132	0	32548	
2133	0	32732	
2134	0	32704	
2135	0	32668	
2136	0	32660	
2137	0	32776	
2138	0	32668	
2139	0	32612	
2140	0	32448	
2141	0	32516	
2142	0	32744	
2143	0	32888	
2144	0	32908	
2145	0	32984	
2146	0	32948	
2147	0	32924	
2148	0	32940	
2149	0	32880	
2150	0	32732	
2151	0	32557	
2152	0	32548	
2153	0	32592	
2154	0	32410	
2155	0	32380	
2156	0	32310	
2157	0	32392	
2158	0	32648	
2159	0	32908	
2160	0	33068	
2161	0	33272	
2162	0	33524	
2163	0	33544	
2164	0	33576	
2165	0	33592	
2166	0	33552	
2167	0	33604	
2168	0	33552	
2169	0	33336	
2170	0	33352	
2171	0	33165	
2172	0	33092	
2173	0	32965	
2174	0	32548	
2175	0	32376	
2176	0	32204	
2177	0	31972	
2178	0	31952	
2179	0	32012	
2180	0	32076	
2181	0	32192	
2182	0	32468	
2183	0	32598	
2184	0	32692	
2185	0	32764	
2186	0	32768	
2187	0	32792	
2188	0	32712	
2189	0	32724	
2190	0	32908	
2191	0	32992	
2192	0	33248	
2193	0	33212	
2194	0	33004	
2195	0	32804	
2196	0	32664	
2197	0	32496	
2198	0	32404	
2199	0	32448	
2200	0	32342	
2201	0	32517	
2202	0	32708	
2203	0	32840	
2204	0	32916	
2205	0	32880	
2206	0	32996	
2207	0	32960	
2208	0	32960	
2209	0	32912	
2210	0	32933	
2211	0	32924	
2212	0	32976	
2213	0	32944	
2214	0	32880	
2215	0	32728	
2216	0	32698	
2217	0	32570	
2218	0	32542	
2219	0	32520	
2220	0	32464	
2221	0	32484	
2222	0	32628	
2223	0	32840	
2224	0	32832	
2225	0	32888	
2226	0	32908	
2227	0	32904	
2228	0	32944	
2229	0	32904	
2230	0	32968	
2231	0	32992	
2232	0	32972	
2233	0	33068	
2234	0	32804	
2235	0	32724	
2236	0	32684	
2237	0	32620	
2238	0	32468	
2239	0	32432	
2240	0	32224	
2241	0	32421	
2242	0	32688	
2243	0	33008	
2244	0	33282	
2245	0	33092	
2246	0	32868	
2247	0	32884	
2248	0	32784	
2249	0	32834	
2250	0	32989	
2251	0	32972	
2252	0	32844	
2253	0	32868	
2254	0	32744	
2255	0	32756	
2256	0	32744	
2257	0	32608	
2258	0	32484	
2259	0	32471	
2260	0	32296	
2261	0	32464	
2262	0	32752	
2263	0	32860	
2264	0	32856	
2265	0	32780	
2266	0	32788	
2267	0	32768	
2268	0	32844	
2269	0	33020	
2270	0	33092	
2271	0	33156	
2272	0	32984	
2273	0	32972	
2274	0	32752	
2275	0	32700	
2276	0	32601	
2277	0	32560	
2278	0	32528	
2279	0	32472	
2280	0	32337	
2281	0	32484	
2282	0	32680	
2283	0	32836	
2284	0	32916	
2285	0	32992	
2286	0	32868	
2287	0	32816	
2288	0	32896	
2289	0	32877	
2290	0	32916	
2291	0	33000	
2292	0	33200	
2293	0	33176	
2294	0	33052	
2295	0	32868	
2296	0	32704	
2297	0	32528	
2298	0	32244	
2299	0	32336	
2300	0	32312	
2301	0	32472	
2302	0	32708	
2303	0	32752	
2304	0	32822	
2305	0	32936	
2306	0	32892	
2307	0	32856	
2308	0	32992	
2309	0	32912	
2310	0	32924	
2311	0	33012	
2312	0	32996	
2313	0	32976	
2314	0	32912	
2315	0	32740	
2316	0	32668	
2317	0	32604	
2318	0	32524	
2319	0	32634	
2320	0	32456	
2321	0	32480	
2322	0	32621	
2323	0	32708	
2324	0	32694	
2325	0	32820	
2326	0	32844	
2327	0	33053	
2328	0	33044	
2329	0	32880	
2330	0	33032	
2331	0	32984	
2332	0	33060	
2333	0	32932	
2334	0	32937	
2335	0	32752	
2336	0	32665	
2337	0	32600	
2338	0	32516	
2339	0	32508	
2340	0	32476	
2341	0	32448	
2342	0	32572	
2343	0	32744	
2344	0	32862	
2345	0	32948	
2346	0	32912	
2347	0	32812	
2348	0	32816	
2349	0	32668	
2350	0	32684	
2351	0	32768	
2352	0	33344	
2353	0	33516	
2354	0	33256	
2355	0	32964	
2356	0	32712	
2357	0	32412	
2358	0	32384	
2359	0	32396	
2360	0	32356	
2361	0	32414	
2362	0	32580	
2363	0	32716	
2364	0	32756	
2365	0	32880	
2366	0	32996	
2367	0	32897	
2368	0	32698	
2369	0	32908	
2370	0	33121	
2371	0	33116	
2372	0	33164	
2373	0	32920	
2374	0	32692	
2375	0	32720	
2376	0	32677	
2377	0	32688	
2378	0	32564	
2379	0	32544	
2380	0	32476	
2381	0	32576	
2382	0	32794	
2383	0	32724	
2384	0	32660	
2385	0	32678	
2386	0	32740	
2387	0	32812	
2388	0	32952	
2389	0	32860	
2390	0	32928	
2391	0	33036	
2392	0	33084	
2393	0	33080	
2394	0	32912	
2395	0	32836	
2396	0	32688	
2397	0	32596	
2398	0	32412	
2399	0	32536	
2400	0	32456	
2401	0	32396	
2402	0	32768	
2403	0	32856	
2404	0	32932	
2405	0	32860	
2406	0	32860	
2407	0	32732	
2408	0	32810	
2409	0	32793	
2410	0	32846	
2411	0	33008	
2412	0	33032	
2413	0	33057	
2414	0	32918	
2415	0	32792	
2416	0	32716	
2417	0	32548	
2418	0	32516	
2419	0	32624	
2420	0	32544	
2421	0	32492	
2422	0	32662	
2423	0	32812	
2424	0	32776	
2425	0	32940	
2426	0	32868	
2427	0	32848	
2428	0	32870	
2429	0	32872	
2430	0	32984	
2431	0	33052	
2432	0	33020	
2433	0	32932	
2434	0	32872	
2435	0	32677	
2436	0	32774	
2437	0	32620	
2438	0	32440	
2439	0	32516	
2440	0	32448	
2441	0	32400	
2442	0	32660	
2443	0	32800	
2444	0	32774	
2445	0	32940	
2446	0	32824	
2447	0	32820	
2448	0	32936	
2449	0	32956	
2450	0	33044	
2451	0	32918	
2452	0	32932	
2453	0	33045	
2454	0	32932	
2455	0	32864	
2456	0	32788	
2457	0	32680	
2458	0	32476	
2459	0	32556	
2460	0	32537	
2461	0	32416	
2462	0	32548	
2463	0	32588	
2464	0	32688	
2465	0	32748	
2466	0	32929	
2467	0	33036	
2468	0	33060	
2469	0	33038	
2470	0	32888	
2471	0	32908	
2472	0	33084	
2473	0	33084	
2474	0	32916	
2475	0	32708	
2476	0	32620	
2477	0	32612	
2478	0	32576	
2479	0	32500	
2480	0	32520	
2481	0	32420	
2482	0	32632	
2483	0	32756	
2484	0	32792	
2485	0	32852	
2486	0	32780	
2487	0	32788	
2488	0	32972	
2489	0	32964	
2490	0	32952	
2491	0	32988	
2492	0	32912	
2493	0	32940	
2494	0	32856	
2495	0	32672	
2496	0	32688	
2497	0	32560	
2498	0	32568	
2499	0	32576	
2500	0	32516	
2501	0	32438	
2502	0	32560	
2503	0	32704	
2504	0	32856	
2505	0	32936	
2506	0	32882	
2507	0	32840	
2508	0	32856	
2509	0	32836	
2510	0	32820	
2511	0	32908	
2512	0	32964	
2513	0	33092	
2514	0	33032	
2515	0	32889	
2516	0	32708	
2517	0	32624	
2518	0	32556	
2519	0	32637	
2520	0	32584	
2521	0	32374	
2522	0	32508	
2523	0	32688	
2524	0	32884	
2525	0	32861	
2526	0	32860	
2527	0	32916	
2528	0	33004	
2529	0	32928	
2530	0	32948	
2531	0	32992	
2532	0	32992	
2533	0	32960	
2534	0	32856	
2535	0	32832	
2536	0	32808	
2537	0	32720	
2538	0	32440	
2539	0	32488	
2540	0	32512	
2541	0	32468	
2542	0	32712	
2543	0	32804	
2544	0	32840	
2545	0	32872	
2546	0	32824	
2547	0	32860	
2548	0	32844	
2549	0	32732	
2550	0	32968	
2551	0	33260	
2552	0	33220	
2553	0	33044	
2554	0	32812	
2555	0	32756	
2556	0	32696	
2557	0	32588	
2558	0	32452	
2559	0	32460	
2560	0	32476	
2561	0	32368	
2562	0	32598	
2563	0	32710	
2564	0	32800	
2565	0	32872	
2566	0	33024	
2567	0	33124	
2568	0	32992	
2569	0	32900	
2570	0	32856	
2571	0	32792	
2572	0	32926	
2573	0	33038	
2574	0	32868	
2575	0	32788	
2576	0	32748	
2577	0	32648	
2578	0	32568	
2579	0	32580	
2580	0	32440	
2581	0	32357	
2582	0	32540	
2583	0	32676	
2584	0	32744	
2585	0	32788	
2586	0	32968	
2587	0	33204	
2588	0	33190	
2589	0	32948	
2590	0	32901	
2591	0	32998	
2592	0	33078	
2593	0	32944	
2594	0	32612	
2595	0	32612	
2596	0	32622	
2597	0	32574	
2598	0	32488	
2599	0	32484	
2600	0	32516	
2601	0	32348	
2602	0	32552	
2603	0	32764	
2604	0	32988	
2605	0	33078	
2606	0	33108	
2607	0	32984	
2608	0	32816	
2609	0	32892	
2610	0	32881	
2611	0	32776	
2612	0	32726	
2613	0	32912	
2614	0	33021	
2615	0	32820	
2616	0	32776	
2617	0	32712	
2618	0	32536	
2619	0	32580	
2620	0	32505	
2621	0	32392	
2622	0	32570	
2623	0	32780	
2624	0	32916	
2625	0	32877	
2626	0	32920	
2627	0	33012	
2628	0	32968	
2629	0	32937	
2630	0	32925	
2631	0	32908	
2632	0	32996	
2633	0	33044	
2634	0	32884	
2635	0	32820	
2636	0	32708	
2637	0	32632	
2638	0	32504	
2639	0	32504	
2640	0	32488	
2641	0	32480	
2642	0	32600	
2643	0	32752	
2644	0	32740	
2645	0	32876	
2646	0	32820	
2647	0	32864	
2648	0	32952	
2649	0	32988	
2650	0	33092	
2651	0	33028	
2652	0	32924	
2653	0	32988	
2654	0	32880	
2655	0	32732	
2656	0	32756	
2657	0	32596	
2658	0	32372	
2659	0	32452	
2660	0	32396	
2661	0	32528	
2662	0	32632	
2663	0	32844	
2664	0	32980	
2665	0	32904	
2666	0	32696	
2667	0	32837	
2668	0	32952	
2669	0	32920	
2670	0	32952	
2671	0	33028	
2672	0	33044	
2673	0	32974	
2674	0	32957	
2675	0	32780	
2676	0	32652	
2677	0	32568	
2678	0	32560	
2679	0	32513	
2680	0	32376	
2681	0	32348	
2682	0	32708	
2683	0	32980	
2684	0	33000	
2685	0	32788	
2686	0	32812	
2687	0	33000	
2688	0	32936	
2689	0	32820	
2690	0	32932	
2691	0	32984	
2692	0	32936	
2693	0	32936	
2694	0	32876	
2695	0	32741	
2696	0	32780	
2697	0	32752	
2698	0	32604	
2699	0	32496	
2700	0	32388	
2701	0	32376	
2702	0	32592	
2703	0	32724	
2704	0	32792	
2705	0	32844	
2706	0	32884	
2707	0	32900	
2708	0	32880	
2709	0	33006	
2710	0	32966	
2711	0	33076	
2712	0	32929	
2713	0	32956	
2714	0	32948	
2715	0	32932	
2716	0	32964	
2717	0	32612	
2718	0	32413	
2719	0	32397	
2720	0	32400	
2721	0	32372	
2722	0	32648	
2723	0	32720	
2724	0	32808	
2725	0	32852	
2726	0	32864	
2727	0	32853	
2728	0	32924	
2729	0	32776	
2730	0	32852	
2731	0	33146	
2732	0	33080	
2733	0	32932	
2734	0	32920	
2735	0	32996	
2736	0	32804	
2737	0	32684	
2738	0	32440	
2739	0	32494	
2740	0	32452	
2741	0	32464	
2742	0	32540	
2743	0	32768	
2744	0	32814	
2745	0	32900	
2746	0	32956	
2747	0	32808	
2748	0	32856	
2749	0	32856	
2750	0	32980	
2751	0	33012	
2752	0	32972	
2753	0	32992	
2754	0	32992	
2755	0	32812	
2756	0	32716	
2757	0	32536	
2758	0	32304	
2759	0	32461	
2760	0	32520	
2761	0	32484	
2762	0	32556	
2763	0	32696	
2764	0	32760	
2765	0	32884	
2766	0	32888	
2767	0	33004	
2768	0	33088	
2769	0	32972	
2770	0	32812	
2771	0	32896	
2772	0	33044	
2773	0	33012	
2774	0	32824	
2775	0	32720	
2776	0	32736	
2777	0	32678	
2778	0	32500	
2779	0	32492	
2780	0	32488	
2781	0	32468	
2782	0	32729	
2783	0	32836	
2784	0	32864	
2785	0	32836	
2786	0	32820	
2787	0	32918	
2788	0	32856	
2789	0	32878	
2790	0	32876	
2791	0	32964	
2792	0	32944	
2793	0	33020	
2794	0	32886	
2795	0	32828	
2796	0	32684	
2797	0	32616	
2798	0	32512	
2799	0	32564	
2800	0	32552	
2801	0	32471	
2802	0	32648	
2803	0	32796	
2804	0	32884	
2805	0	32736	
2806	0	32880	
2807	0	32916	
2808	0	32957	
2809	0	32960	
2810	0	32948	
2811	0	33004	
2812	0	33004	
2813	0	32926	
2814	0	32780	
2815	0	32732	
2816	0	32740	
2817	0	32628	
2818	0	32584	
2819	0	32628	
2820	0	32588	
2821	0	32540	
2822	0	32748	
2823	0	32770	
2824	0	32732	
2825	0	32780	
2826	0	32756	
2827	0	32868	
2828	0	32837	
2829	0	32756	
2830	0	32717	
2831	0	32845	
2832	0	32992	
2833	0	32869	
2834	0	32852	
2835	0	32846	
2836	0	32756	
2837	0	32584	
2838	0	32648	
2839	0	32636	
2840	0	32676	
2841	0	32528	
2842	0	32732	
2843	0	32840	
2844	0	32904	
2845	0	33004	
2846	0	32904	
2847	0	33020	
2848	0	32996	
2849	0	32972	
2850	0	33088	
2851	0	32988	
2852	0	32944	
2853	0	32920	
2854	0	32820	
2855	0	32696	
2856	0	32732	
2857	0	32612	
2858	0	32416	
2859	0	32324	
2860	0	32409	
2861	0	32444	
2862	0	32581	
2863	0	32736	
2864	0	32708	
2865	0	32796	
2866	0	32832	
2867	0	32968	
2868	0	33004	
2869	0	32952	
2870	0	32901	
2871	0	33004	
2872	0	33020	
2873	0	33021	
2874	0	32984	
2875	0	32864	
2876	0	32788	
2877	0	32572	
2878	0	32460	
2879	0	32504	
2880	0	32548	
2881	0	32432	
2882	0	32597	
2883	0	32808	
2884	0	32864	
2885	0	32884	
2886	0	32908	
2887	0	32865	
2888	0	32796	
2889	0	32808	
2890	0	32928	
2891	0	32976	
2892	0	33032	
2893	0	33076	
2894	0	32904	
2895	0	32732	
2896	0	32733	
2897	0	32728	
2898	0	32472	
2899	0	32544	
2900	0	32468	
2901	0	32404	
2902	0	32592	
2903	0	32664	
2904	0	32768	
2905	0	32820	
2906	0	32808	
2907	0	32932	
2908	0	33044	
2909	0	33036	
2910	0	32954	
2911	0	32924	
2912	0	32966	
2913	0	33038	
2914	0	32960	
2915	0	32780	
2916	0	32708	
2917	0	32448	
2918	0	32388	
2919	0	32596	
2920	0	32654	
2921	0	32560	
2922	0	32680	
2923	0	32720	
2924	0	32844	
2925	0	32880	
2926	0	32832	
2927	0	32924	
2928	0	33072	
2929	0	32848	
2930	0	32840	
2931	0	32836	
2932	0	33012	
2933	0	33088	
2934	0	32948	
2935	0	32900	
2936	0	32640	
2937	0	32524	
2938	0	32500	
2939	0	32568	
2940	0	32460	
2941	0	32394	
2942	0	32560	
2943	0	32716	
2944	0	32828	
2945	0	32846	
2946	0	32864	
2947	0	32809	
2948	0	33041	
2949	0	32998	
2950	0	32964	
2951	0	33020	
2952	0	32996	
2953	0	32956	
2954	0	32856	
2955	0	32780	
2956	0	32680	
2957	0	32564	
2958	0	32624	
2959	0	32644	
2960	0	32558	
2961	0	32300	
2962	0	32549	
2963	0	32796	
2964	0	32720	
2965	0	32768	
2966	0	32944	
2967	0	32952	
2968	0	33026	
2969	0	32896	
2970	0	32864	
2971	0	32972	
2972	0	32997	
2973	0	32984	
2974	0	32885	
2975	0	32809	
2976	0	32624	
2977	0	32644	
2978	0	32456	
2979	0	32532	
2980	0	32568	
2981	0	32480	
2982	0	32544	
2983	0	32636	
2984	0	32880	
2985	0	32996	
2986	0	32936	
2987	0	32993	
2988	0	33044	
2989	0	32970	
2990	0	32840	
2991	0	32940	
2992	0	33070	
2993	0	33012	
2994	0	32852	
2995	0	32696	
2996	0	32756	
2997	0	32576	
2998	0	32316	
2999	0	32496	
3000	0	32484	
3001	0	32312	
3002	0	32577	
3003	0	32740	
3004	0	32848	
3005	0	32952	
3006	0	32924	
3007	0	32964	
3008	0	32980	
3009	0	32908	
3010	0	32880	
3011	0	32937	
3012	0	32908	
3013	0	33000	
3014	0	32896	
3015	0	32832	
3016	0	32778	
3017	0	32644	
3018	0	32536	
3019	0	32532	
3020	0	32536	
3021	0	32396	
3022	0	32644	
3023	0	32716	
3024	0	32904	
3025	0	32910	
3026	0	32844	
3027	0	32884	
3028	0	32976	
3029	0	32892	
3030	0	32856	
3031	0	32932	
3032	0	32974	
3033	0	33036	
3034	0	32928	
3035	0	32816	
3036	0	32744	
3037	0	32536	
3038	0	32472	
3039	0	32528	
3040	0	32596	
3041	0	32400	
3042	0	32580	
3043	0	32768	
3044	0	32845	
3045	0	32877	
3046	0	32800	
3047	0	32812	
3048	0	32920	
3049	0	32952	
3050	0	32916	
3051	0	32972	
3052	0	33018	
3053	0	33048	
3054	0	32796	
3055	0	32780	
3056	0	32756	
3057	0	32604	
3058	0	32504	
3059	0	32548	
3060	0	32532	
3061	0	32321	
3062	0	32526	
3063	0	32784	
3064	0	32884	
3065	0	32948	
3066	0	32776	
3067	0	32864	
3068	0	32912	
3069	0	32900	
3070	0	33037	
3071	0	32980	
3072	0	32936	
3073	0	33017	
3074	0	32944	
3075	0	32788	
3076	0	32742	
3077	0	32630	
3078	0	32508	
3079	0	32512	
3080	0	32464	
3081	0	32276	
3082	0	32620	
3083	0	32704	
3084	0	32824	
3085	0	32876	
3086	0	32856	
3087	0	32972	
3088	0	33004	
3089	0	32880	
3090	0	32808	
3091	0	33045	
3092	0	33012	
3093	0	33004	
3094	0	32852	
3095	0	32644	
3096	0	32741	
3097	0	32692	
3098	0	32508	
3099	0	32608	
3100	0	32568	
3101	0	32392	
3102	0	32540	
3103	0	32741	
3104	0	32812	
3105	0	32868	
3106	0	32912	
3107	0	32848	
3108	0	32964	
3109	0	32880	
3110	0	32976	
3111	0	32960	
3112	0	32949	
3113	0	32912	
3114	0	32952	
3115	0	32856	
3116	0	32832	
3117	0	32741	
3118	0	32492	
3119	0	32456	
3120	0	32496	
3121	0	32416	
3122	0	32516	
3123	0	32680	
3124	0	32852	
3125	0	32928	
3126	0	32836	
3127	0	32952	
3128	0	32952	
3129	0	32880	
3130	0	32880	
3131	0	32988	
3132	0	32988	
3133	0	33056	
3134	0	32924	
3135	0	32784	
3136	0	32712	
3137	0	32832	
3138	0	32588	
3139	0	32452	
3140	0	32364	
3141	0	32212	
3142	0	32500	
3143	0	32824	
3144	0	32892	
3145	0	33004	
3146	0	32880	
3147	0	32940	
3148	0	33296	
3149	0	32984	
3150	0	32708	
3151	0	32856	
3152	0	32892	
3153	0	32788	
3154	0	32804	
3155	0	32892	
3156	0	32908	
3157	0	32740	
3158	0	32604	
3159	0	32468	
3160	0	32430	
3161	0	32316	
3162	0	32631	
3163	0	32792	
3164	0	32829	
3165	0	32844	
3166	0	32837	
3167	0	32912	
3168	0	32984	
3169	0	33008	
3170	0	33045	
3171	0	32984	
3172	0	32897	
3173	0	32936	
3174	0	32924	
3175	0	32864	
3176	0	32800	
3177	0	32660	
3178	0	32512	
3179	0	32432	
3180	0	32500	
3181	0	32421	
3182	0	32520	
3183	0	32644	
3184	0	32712	
3185	0	32808	
3186	0	32944	
3187	0	33072	
3188	0	33140	
3189	0	33100	
3190	0	32960	
3191	0	32976	
3192	0	32945	
3193	0	32952	
3194	0	32849	
3195	0	32710	
3196	0	32740	
3197	0	32628	
3198	0	32380	
3199	0	32528	
3200	0	32604	
3201	0	32328	
3202	0	32568	
3203	0	32836	
3204	0	32852	
3205	0	32860	
3206	0	32860	
3207	0	32968	
3208	0	32964	
3209	0	32886	
3210	0	32932	
3211	0	32984	
3212	0	32936	
3213	0	32996	
3214	0	32908	
3215	0	32780	
3216	0	32736	
3217	0	32694	
3218	0	32548	
3219	0	32480	
3220	0	32520	
3221	0	32376	
3222	0	32568	
3223	0	32740	
3224	0	32812	
3225	0	32928	
3226	0	32882	
3227	0	32808	
3228	0	32921	
3229	0	32885	
3230	0	32848	
3231	0	33024	
3232	0	32984	
3233	0	33016	
3234	0	32988	
3235	0	32844	
3236	0	32708	
3237	0	32612	
3238	0	32452	
3239	0	32584	
3240	0	32562	
3241	0	32444	
3242	0	32632	
3243	0	32568	
3244	0	32654	
3245	0	32864	
3246	0	33040	
3247	0	32956	
3248	0	32868	
3249	0	32848	
3250	0	32956	
3251	0	33068	
3252	0	32965	
3253	0	32916	
3254	0	33000	
3255	0	32736	
3256	0	32824	
3257	0	32774	
3258	0	32692	
3259	0	32588	
3260	0	32385	
3261	0	32140	
3262	0	32444	
3263	0	32688	
3264	0	32824	
3265	0	32933	
3266	0	32800	
3267	0	32836	
3268	0	33072	
3269	0	33260	
3270	0	33040	
3271	0	32780	
3272	0	32600	
3273	0	32800	
3274	0	33000	
3275	0	32928	
3276	0	32856	
3277	0	32724	
3278	0	32524	
3279	0	32592	
3280	0	32544	
3281	0	32406	
3282	0	32580	
3283	0	32716	
3284	0	32836	
3285	0	32900	
3286	0	32840	
3287	0	32841	
3288	0	33016	
3289	0	32952	
3290	0	32864	
3291	0	32996	
3292	0	33056	
3293	0	32960	
3294	0	32920	
3295	0	32768	
3296	0	32732	
3297	0	32684	
3298	0	32488	
3299	0	32528	
3300	0	32550	
3301	0	32356	
3302	0	32524	
3303	0	32744	
3304	0	32780	
3305	0	32912	
3306	0	32864	
3307	0	32868	
3308	0	32908	
3309	0	32908	
3310	0	32908	
3311	0	32908	
3312	0	32876	
3313	0	32964	
3314	0	33072	
3315	0	32969	
3316	0	32793	
3317	0	32740	
3318	0	32455	
3319	0	32476	
3320	0	32524	
3321	0	32324	
3322	0	32476	
3323	0	32716	
3324	0	32816	
3325	0	32824	
3326	0	32820	
3327	0	32940	
3328	0	32988	
3329	0	32856	
3330	0	32940	
3331	0	33060	
3332	0	33008	
3333	0	32966	
3334	0	32912	
3335	0	32788	
3336	0	32672	
3337	0	32637	
3338	0	32392	
3339	0	32628	
3340	0	32800	
3341	0	32560	
3342	0	32584	
3343	0	32656	
3344	0	32736	
3345	0	32856	
3346	0	32760	
3347	0	32904	
3348	0	32940	
3349	0	32884	
3350	0	32901	
3351	0	33005	
3352	0	32956	
3353	0	33044	
3354	0	32992	
3355	0	32760	
3356	0	32750	
3357	0	32640	
3358	0	32350	
3359	0	32452	
3360	0	32668	
3361	0	32668	
3362	0	32718	
3363	0	32776	
3364	0	32684	
3365	0	32616	
3366	0	32628	
3367	0	32713	
3368	0	32976	
3369	0	32944	
3370	0	32984	
3371	0	33048	
3372	0	32984	
3373	0	32988	
3374	0	33048	
3375	0	32892	
3376	0	32808	
3377	0	32610	
3378	0	32520	
3379	0	32440	
3380	0	32561	
3381	0	32388	
3382	0	32439	
3383	0	32612	
3384	0	32772	
3385	0	32812	
3386	0	32984	
3387	0	33052	
3388	0	32932	
3389	0	32804	
3390	0	32911	
3391	0	33000	
3392	0	32952	
3393	0	33000	
3394	0	33020	
3395	0	32940	
3396	0	32724	
3397	0	32672	
3398	0	32473	
3399	0	32456	
3400	0	32550	
3401	0	32425	
3402	0	32516	
3403	0	32672	
3404	0	32764	
3405	0	32856	
3406	0	32908	
3407	0	32992	
3408	0	32956	
3409	0	32864	
3410	0	32860	
3411	0	32900	
3412	0	32972	
3413	0	32980	
3414	0	32988	
3415	0	32908	
3416	0	32716	
3417	0	32572	
3418	0	32492	
3419	0	32540	
3420	0	32488	
3421	0	32480	
3422	0	32512	
3423	0	32704	
3424	0	32764	
3425	0	32881	
3426	0	32892	
3427	0	32932	
3428	0	32992	
3429	0	33004	
3430	0	32849	
3431	0	32904	
3432	0	32892	
3433	0	32944	
3434	0	32996	
3435	0	32840	
3436	0	32800	
3437	0	32612	
3438	0	32520	
3439	0	32496	
3440	0	32588	
3441	0	32428	
3442	0	32536	
3443	0	32692	
3444	0	32784	
3445	0	32960	
3446	0	32942	
3447	0	32836	
3448	0	32920	
3449	0	32808	
3450	0	32832	
3451	0	32954	
3452	0	32928	
3453	0	32976	
3454	0	33008	
3455	0	32740	
3456	0	32756	
3457	0	32844	
3458	0	32560	
3459	0	32524	
3460	0	32542	
3461	0	32536	
3462	0	32388	
3463	0	32584	
3464	0	32944	
3465	0	33085	
3466	0	32848	
3467	0	32822	
3468	0	32836	
3469	0	32924	
3470	0	32900	
3471	0	32920	
3472	0	32975	
3473	0	32956	
3474	0	32960	
3475	0	32832	
3476	0	32812	
3477	0	32720	
3478	0	32568	
3479	0	32480	
3480	0	32548	
3481	0	32500	
3482	0	32364	
3483	0	32648	
3484	0	32732	
3485	0	32820	
3486	0	32936	
3487	0	32912	
3488	0	32916	
3489	0	32845	
3490	0	32820	
3491	0	32877	
3492	0	33040	
3493	0	33080	
3494	0	33052	
3495	0	32801	
3496	0	32744	
3497	0	32780	
3498	0	32564	
3499	0	32520	
3500	0	32473	
3501	0	32464	
3502	0	32336	
3503	0	32596	
3504	0	32902	
3505	0	32984	
3506	0	33024	
3507	0	32828	
3508	0	32912	
3509	0	32816	
3510	0	32900	
3511	0	32996	
3512	0	32928	
3513	0	32900	
3514	0	32952	
3515	0	32924	
3516	0	32752	
3517	0	32716	
3518	0	32532	
3519	0	32444	
3520	0	32469	
3521	0	32444	
3522	0	32472	
3523	0	32840	
3524	0	32932	
3525	0	32828	
3526	0	32832	
3527	0	32864	
3528	0	32952	
3529	0	32884	
3530	0	32836	
3531	0	32876	
3532	0	32928	
3533	0	33004	
3534	0	33064	
3535	0	32844	
3536	0	32856	
3537	0	32724	
3538	0	32476	
3539	0	32428	
3540	0	32640	
3541	0	32593	
3542	0	32444	
3543	0	32620	
3544	0	32688	
3545	0	32820	
3546	0	32908	
3547	0	32844	
3548	0	32860	
3549	0	32920	
3550	0	32912	
3551	0	32976	
3552	0	32920	
3553	0	32908	
3554	0	32996	
3555	0	32876	
3556	0	32840	
3557	0	32788	
3558	0	32588	
3559	0	32616	
3560	0	32517	
3561	0	32557	
3562	0	32552	
3563	0	32684	
3564	0	32696	
3565	0	32712	
3566	0	32801	
3567	0	32832	
3568	0	32948	
3569	0	32868	
3570	0	32876	
3571	0	32929	
3572	0	32956	
3573	0	32972	
3574	0	32996	
3575	0	32856	
3576	0	32800	
3577	0	32744	
3578	0	32576	
3579	0	32488	
3580	0	32548	
3581	0	32536	
3582	0	32404	
3583	0	32628	
3584	0	32704	
3585	0	32812	
3586	0	32852	
3587	0	32968	
3588	0	32972	
3589	0	32994	
3590	0	32940	
3591	0	32884	
3592	0	33056	
3593	0	33021	
3594	0	33016	
3595	0	32836	
3596	0	32756	
3597	0	32646	
3598	0	32484	
3599	0	32516	
3600	0	32500	
3601	0	32508	
3602	0	32412	
3603	0	32564	
3604	0	32696	
3605	0	32873	
3606	0	33100	
3607	0	33072	
3608	0	32900	
3609	0	32806	
3610	0	32832	
3611	0	32892	
3612	0	32952	
3613	0	32924	
3614	0	32824	
3615	0	32864	
3616	0	32800	
3617	0	32664	
3618	0	32604	
3619	0	32624	
3620	0	32724	
3621	0	32692	
3622	0	32412	
3623	0	32560	
3624	0	32616	
3625	0	32817	
3626	0	32898	
3627	0	32956	
3628	0	32984	
3629	0	32924	
3630	0	32936	
3631	0	32884	
3632	0	32972	
3633	0	32968	
3634	0	32948	
3635	0	32820	
3636	0	32744	
3637	0	32724	
3638	0	32568	
3639	0	32540	
3640	0	32584	
3641	0	32548	
3642	0	32466	
3643	0	32628	
3644	0	32844	
3645	0	32936	
3646	0	32800	
3647	0	32772	
3648	0	32892	
3649	0	33032	
3650	0	33052	
3651	0	32872	
3652	0	32853	
3653	0	32908	
3654	0	33072	
3655	0	32844	
3656	0	32824	
3657	0	32730	
3658	0	32477	
3659	0	32536	
3660	0	32680	
3661	0	32524	
3662	0	32468	
3663	0	32592	
3664	0	32668	
3665	0	32762	
3666	0	33004	
3667	0	32992	
3668	0	32928	
3669	0	32873	
3670	0	32872	
3671	0	32900	
3672	0	32960	
3673	0	33044	
3674	0	33108	
3675	0	32852	
3676	0	32804	
3677	0	32568	
3678	0	32540	
3679	0	32520	
3680	0	32552	
3681	0	32380	
3682	0	32308	
3683	0	32673	
3684	0	32748	
3685	0	32910	
3686	0	33080	
3687	0	33124	
3688	0	32968	
3689	0	32900	
3690	0	32876	
3691	0	32896	
3692	0	32876	
3693	0	32852	
3694	0	32916	
3695	0	32852	
3696	0	32760	
3697	0	32768	
3698	0	32516	
3699	0	32492	
3700	0	32536	
3701	0	32512	
3702	0	32404	
3703	0	32680	
3704	0	32772	
3705	0	32816	
3706	0	32992	
3707	0	32936	
3708	0	32956	
3709	0	32962	
3710	0	32997	
3711	0	32888	
3712	0	32968	
3713	0	33020	
3714	0	33008	
3715	0	32812	
3716	0	32784	
3717	0	32728	
3718	0	32588	
3719	0	32476	
3720	0	32568	
3721	0	32512	
3722	0	32416	
3723	0	32608	
3724	0	32780	
3725	0	32836	
3726	0	32864	
3727	0	32912	
3728	0	32950	
3729	0	32976	
3730	0	32916	
3731	0	32845	
3732	0	33072	
3733	0	33088	
3734	0	32952	
3735	0	32848	
3736	0	32808	
3737	0	32736	
3738	0	32654	
3739	0	32597	
3740	0	32528	
3741	0	32436	
3742	0	32320	
3743	0	32640	
3744	0	32832	
3745	0	32944	
3746	0	32812	
3747	0	32804	
3748	0	32930	
3749	0	32972	
3750	0	32904	
3751	0	32860	
3752	0	32956	
3753	0	33036	
3754	0	33016	
3755	0	32852	
3756	0	32716	
3757	0	32696	
3758	0	32448	
3759	0	32398	
3760	0	32414	
3761	0	32496	
3762	0	32360	
3763	0	32696	
3764	0	33020	
3765	0	33030	
3766	0	32912	
3767	0	32892	
3768	0	32888	
3769	0	32968	
3770	0	32952	
3771	0	32920	
3772	0	32973	
3773	0	33024	
3774	0	32921	
3775	0	32822	
3776	0	32700	
3777	0	32756	
3778	0	32578	
3779	0	32328	
3780	0	32400	
3781	0	32464	
3782	0	32420	
3783	0	32812	
3784	0	32868	
3785	0	32812	
3786	0	32840	
3787	0	32884	
3788	0	33008	
3789	0	32960	
3790	0	32892	
3791	0	32956	
3792	0	32953	
3793	0	32920	
3794	0	32824	
3795	0	32804	
3796	0	32816	
3797	0	32765	
3798	0	32648	
3799	0	32584	
3800	0	32560	
3801	0	32560	
3802	0	32352	
3803	0	32628	
3804	0	32732	
3805	0	32900	
3806	0	32948	
3807	0	32880	
3808	0	32904	
3809	0	32916	
3810	0	32904	
3811	0	32860	
3812	0	32972	
3813	0	32996	
3814	0	32952	
3815	0	32856	
3816	0	32720	
3817	0	32688	
3818	0	32612	
3819	0	32492	
3820	0	32616	
3821	0	32616	
3822	0	32456	
3823	0	32680	
3824	0	32740	
3825	0	32870	
3826	0	32822	
3827	0	32724	
3828	0	32820	
3829	0	32925	
3830	0	32932	
3831	0	32861	
3832	0	32988	
3833	0	32948	
3834	0	32920	
3835	0	32760	
3836	0	32884	
3837	0	32792	
3838	0	32798	
3839	0	32744	
3840	0	32572	
3841	0	32464	
3842	0	32328	
3843	0	32732	
3844	0	32724	
3845	0	32692	
3846	0	32677	
3847	0	32828	
3848	0	32900	
3849	0	32854	
3850	0	32960	
3851	0	32988	
3852	0	33076	
3853	0	33128	
3854	0	33084	
3855	0	32824	
3856	0	32644	
3857	0	32728	
3858	0	32488	
3859	0	32510	
3860	0	32428	
3861	0	32576	
3862	0	32432	
3863	0	32633	
3864	0	32852	
3865	0	33004	
3866	0	33084	
3867	0	32936	
3868	0	32796	
3869	0	32800	
3870	0	32776	
3871	0	32744	
3872	0	32960	
3873	0	32892	
3874	0	33036	
3875	0	32901	
3876	0	32836	
3877	0	32746	
3878	0	32657	
3879	0	32624	
3880	0	32559	
3881	0	32520	
3882	0	32464	
3883	0	32636	
3884	0	32620	
3885	0	32701	
3886	0	32822	
3887	0	32892	
3888	0	32972	
3889	0	33053	
3890	0	32904	
3891	0	32836	
3892	0	32900	
3893	0	33040	
3894	0	33112	
3895	0	32924	
3896	0	32712	
3897	0	32677	
3898	0	32656	
3899	0	32548	
3900	0	32544	
3901	0	32580	
3902	0	32332	
3903	0	32612	
3904	0	32728	
3905	0	32800	
3906	0	32904	
3907	0	32832	
3908	0	32938	
3909	0	33056	
3910	0	33060	
3911	0	32868	
3912	0	32824	
3913	0	32865	
3914	0	32944	
3915	0	32844	
3916	0	32744	
3917	0	32816	
3918	0	32660	
3919	0	32488	
3920	0	32560	
3921	0	32512	
3922	0	32400	
3923	0	32656	
3924	0	32776	
3925	0	32792	
3926	0	32792	
3927	0	32812	
3928	0	32952	
3929	0	33164	
3930	0	33008	
3931	0	32845	
3932	0	32956	
3933	0	32924	
3934	0	32972	
3935	0	32912	
3936	0	32804	
3937	0	32640	
3938	0	32592	
3939	0	32481	
3940	0	32520	
3941	0	32652	
3942	0	32396	
3943	0	32576	
3944	0	32672	
3945	0	32878	
3946	0	32896	
3947	0	32872	
3948	0	32892	
3949	0	32928	
3950	0	32912	
3951	0	32901	
3952	0	33172	
3953	0	33148	
3954	0	33000	
3955	0	32704	
3956	0	32664	
3957	0	32652	
3958	0	32590	
3959	0	32544	
3960	0	32740	
3961	0	32504	
3962	0	32381	
3963	0	32676	
3964	0	32820	
3965	0	32876	
3966	0	32922	
3967	0	32796	
3968	0	32916	
3969	0	32864	
3970	0	32956	
3971	0	33044	
3972	0	32928	
3973	0	32886	
3974	0	32888	
3975	0	32908	
3976	0	32916	
3977	0	32728	
3978	0	32604	
3979	0	32484	
3980	0	32488	
3981	0	32472	
3982	0	32468	
3983	0	32592	
3984	0	32786	
3985	0	32876	
3986	0	32912	
3987	0	32888	
3988	0	32876	
3989	0	32880	
3990	0	32928	
3991	0	32880	
3992	0	33022	
3993	0	33100	
3994	0	33100	
3995	0	32916	
3996	0	32776	
3997	0	32564	
3998	0	32516	
3999	0	32440	
4000	0	32544	
4001	0	32576	
4002	0	32469	
4003	0	32669	
4004	0	32768	
4005	0	32804	
4006	0	32900	
4007	0	32872	
4008	0	32892	
4009	0	32892	
4010	0	32948	
4011	0	32928	
4012	0	32944	
4013	0	32944	
4014	0	32960	
4015	0	32897	
4016	0	32757	
4017	0	32816	
4018	0	32688	
4019	0	32570	
4020	0	32428	
4021	0	32444	
4022	0	32413	
4023	0	32560	
4024	0	32701	
4025	0	32768	
4026	0	32792	
4027	0	32764	
4028	0	33064	
4029	0	33072	
4030	0	33048	
4031	0	33044	
4032	0	32968	
4033	0	32948	
4034	0	32928	
4035	0	32884	
4036	0	32765	
4037	0	32632	
4038	0	32524	
4039	0	32440	
4040	0	32612	
4041	0	32644	
4042	0	32468	
4043	0	32708	
4044	0	32876	
4045	0	32780	
4046	0	32676	
4047	0	32852	
4048	0	32948	
4049	0	32976	
4050	0	32888	
4051	0	32880	
4052	0	33016	
4053	0	33094	
4054	0	32964	
4055	0	32808	
4056	0	32732	
4057	0	32612	
4058	0	32606	
4059	0	32624	
4060	0	32644	
4061	0	32668	
4062	0	32417	
4063	0	32532	
4064	0	32656	
4065	0	32764	
4066	0	32932	
4067	0	33012	
4068	0	32988	
4069	0	32892	
4070	0	32744	
4071	0	32788	
4072	0	33048	
4073	0	33120	
4074	0	33108	
4075	0	33044	
4076	0	32888	
4077	0	32608	
4078	0	32508	
4079	0	32472	
4080	0	32487	
4081	0	32536	
4082	0	32382	
4083	0	32652	
4084	0	32712	
4085	0	32846	
4086	0	32916	
4087	0	32836	
4088	0	32944	
4089	0	32935	
4090	0	32924	
4091	0	32816	
4092	0	32952	
4093	0	32892	
4094	0	33020	
4095	0	32892	
4096	0	32764	
4097	0	32756	
4098	0	32676	
4099	0	32480	
4100	0	32576	
4101	0	32516	
4102	0	32324	
4103	0	32544	
4104	0	32774	
4105	0	32928	
4106	0	33084	
4107	0	32968	
4108	0	32900	
4109	0	32832	
4110	0	32796	
4111	0	32801	
4112	0	32968	
4113	0	33076	
4114	0	32876	
4115	0	32718	
4116	0	32804	
4117	0	32832	
4118	0	32724	
4119	0	32604	
4120	0	32576	
4121	0	32560	
4122	0	32396	
4123	0	32560	
4124	0	32720	
4125	0	32880	
4126	0	32749	
4127	0	32796	
4128	0	33001	
4129	0	32972	
4130	0	32956	
4131	0	32888	
4132	0	33052	
4133	0	33004	
4134	0	33036	
4135	0	32864	
4136	0	32710	
4137	0	32748	
4138	0	32628	
4139	0	32560	
4140	0	32528	
4141	0	32416	
4142	0	32376	
4143	0	32620	
4144	0	32722	
4145	0	32908	
4146	0	32876	
4147	0	32868	
4148	0	32920	
4149	0	32940	
4150	0	32825	
4151	0	32824	
4152	0	33045	
4153	0	33094	
4154	0	33108	
4155	0	32950	
4156	0	32776	
4157	0	32692	
4158	0	32592	
4159	0	32500	
4160	0	32464	
4161	0	32412	
4162	0	32244	
4163	0	32696	
4164	0	32918	
4165	0	33032	
4166	0	32932	
4167	0	32784	
4168	0	32956	
4169	0	33069	
4170	0	32940	
4171	0	32804	
4172	0	32897	
4173	0	32964	
4174	0	33016	
4175	0	32904	
4176	0	32780	
4177	0	32708	
4178	0	32541	
4179	0	32512	
4180	0	32540	
4181	0	32568	
4182	0	32461	
4183	0	32656	
4184	0	32730	
4185	0	32896	
4186	0	32896	
4187	0	32885	
4188	0	32864	
4189	0	32910	
4190	0	32889	
4191	0	32892	
4192	0	32960	
4193	0	33228	
4194	0	33144	
4195	0	32836	
4196	0	32608	
4197	0	32576	
4198	0	32536	
4199	0	32460	
4200	0	32496	
4201	0	32489	
4202	0	32440	
4203	0	32708	
4204	0	32900	
4205	0	32924	
4206	0	32841	
4207	0	32864	
4208	0	32944	
4209	0	32972	
4210	0	32920	
4211	0	32892	
4212	0	32909	
4213	0	32924	
4214	0	32992	
4215	0	32856	
4216	0	32824	
4217	0	32688	
4218	0	32584	
4219	0	32480	
4220	0	32496	
4221	0	32588	
4222	0	32480	
4223	0	32638	
4224	0	32766	
4225	0	32844	
4226	0	32908	
4227	0	32844	
4228	0	32832	
4229	0	32924	
4230	0	33000	
4231	0	33037	
4232	0	32908	
4233	0	32908	
4234	0	32884	
4235	0	32868	
4236	0	32780	
4237	0	32800	
4238	0	32716	
4239	0	32500	
4240	0	32600	
4241	0	32512	
4242	0	32356	
4243	0	32640	
4244	0	32728	
4245	0	32733	
4246	0	32928	
4247	0	32916	
4248	0	32853	
4249	0	32836	
4250	0	32896	
4251	0	33020	
4252	0	33044	
4253	0	33036	
4254	0	33120	
4255	0	32864	
4256	0	32788	
4257	0	32736	
4258	0	32520	
4259	0	32368	
4260	0	32404	
4261	0	32440	
4262	0	32440	
4263	0	32640	
4264	0	32736	
4265	0	33041	
4266	0	33080	
4267	0	32884	
4268	0	32812	
4269	0	33020	
4270	0	32916	
4271	0	32768	
4272	0	32871	
4273	0	32940	
4274	0	32944	
4275	0	32876	
4276	0	32712	
4277	0	32772	
4278	0	32669	
4279	0	32544	
4280	0	32536	
4281	0	32520	
4282	0	32436	
4283	0	32577	
4284	0	32760	
4285	0	32864	
4286	0	32808	
4287	0	32908	
4288	0	32960	
4289	0	32901	
4290	0	32844	
4291	0	32904	
4292	0	33172	
4293	0	33164	
4294	0	33016	
4295	0	32750	
4296	0	32593	
4297	0	32664	
4298	0	32698	
4299	0	32608	
4300	0	32564	
4301	0	32544	
4302	0	32336	
4303	0	32544	
4304	0	32748	
4305	0	32812	
4306	0	32828	
4307	0	32832	
4308	0	32913	
4309	0	32944	
4310	0	32920	
4311	0	32988	
4312	0	32984	
4313	0	32984	
4314	0	32976	
4315	0	32932	
4316	0	32832	
4317	0	32772	
4318	0	32654	
4319	0	32512	
4320	0	32617	
4321	0	32572	
4322	0	32417	
4323	0	32608	
4324	0	32652	
4325	0	32829	
4326	0	32852	
4327	0	32848	
4328	0	32864	
4329	0	32904	
4330	0	32880	
4331	0	32920	
4332	0	33120	
4333	0	33036	
4334	0	32940	
4335	0	32860	
4336	0	32800	
4337	0	32752	
4338	0	32672	
4339	0	32428	
4340	0	32544	
4341	0	32508	
4342	0	32340	
4343	0	32680	
4344	0	32841	
4345	0	32924	
4346	0	32860	
4347	0	32828	
4348	0	32836	
4349	0	32932	
4350	0	32976	
4351	0	32999	
4352	0	32996	
4353	0	32956	
4354	0	32892	
4355	0	32768	
4356	0	32836	
4357	0	32724	
4358	0	32584	
4359	0	32510	
4360	0	32596	
4361	0	32665	
4362	0	32392	
4363	0	32576	
4364	0	32688	
4365	0	32900	
4366	0	32940	
4367	0	32920	
4368	0	32844	
4369	0	32944	
4370	0	32916	
4371	0	32928	
4372	0	32982	
4373	0	32908	
4374	0	33004	
4375	0	32968	
4376	0	32740	
4377	0	32752	
4378	0	32752	
4379	0	32492	
4380	0	32472	
4381	0	32548	
4382	0	32364	
4383	0	32688	
4384	0	32732	
4385	0	32900	
4386	0	32884	
4387	0	32824	
4388	0	32916	
4389	0	33060	
4390	0	32984	
4391	0	32926	
4392	0	32960	
4393	0	32966	
4394	0	32952	
4395	0	32820	
4396	0	32764	
4397	0	32676	
4398	0	32576	
4399	0	32496	
4400	0	32584	
4401	0	32580	
4402	0	32400	
4403	0	32672	
4404	0	32748	
4405	0	32832	
4406	0	32876	
4407	0	32820	
4408	0	32832	
4409	0	32836	
4410	0	32928	
4411	0	32912	
4412	0	33044	
4413	0	33134	
4414	0	33120	
4415	0	32760	
4416	0	32748	
4417	0	32748	
4418	0	32756	
4419	0	32497	
4420	0	32472	
4421	0	32394	
4422	0	32312	
4423	0	32648	
4424	0	32728	
4425	0	32780	
4426	0	32892	
4427	0	32952	
4428	0	32876	
4429	0	32860	
4430	0	32740	
4431	0	32832	
4432	0	33064	
4433	0	33132	
4434	0	33144	
4435	0	32832	
4436	0	32728	
4437	0	32732	
4438	0	32600	
4439	0	32528	
4440	0	32540	
4441	0	32564	
4442	0	32428	
4443	0	32684	
4444	0	32896	
4445	0	32796	
4446	0	32876	
4447	0	32808	
4448	0	32812	
4449	0	32996	
4450	0	32886	
4451	0	32920	
4452	0	33036	
4453	0	33016	
4454	0	32996	
4455	0	32838	
4456	0	32828	
4457	0	32765	
4458	0	32684	
4459	0	32448	
4460	0	32532	
4461	0	32596	
4462	0	32372	
4463	0	32614	
4464	0	32789	
4465	0	32800	
4466	0	32800	
4467	0	32828	
4468	0	32896	
4469	0	32976	
4470	0	32957	
4471	0	32949	
4472	0	33013	
4473	0	32976	
4474	0	32960	
4475	0	32876	
4476	0	32792	
4477	0	32716	
4478	0	32596	
4479	0	32448	
4480	0	32504	
4481	0	32468	
4482	0	32384	
4483	0	32621	
4484	0	32752	
4485	0	32824	
4486	0	32852	
4487	0	32844	
4488	0	33009	
4489	0	33036	
4490	0	32988	
4491	0	32888	
4492	0	33024	
4493	0	32998	
4494	0	33060	
4495	0	32956	
4496	0	32704	
4497	0	32740	
4498	0	32528	
4499	0	32504	
4500	0	32558	
4501	0	32556	
4502	0	32344	
4503	0	32528	
4504	0	32608	
4505	0	32756	
4506	0	32792	
4507	0	33006	
4508	0	33140	
4509	0	32972	
4510	0	32900	
4511	0	32879	
4512	0	33008	
4513	0	32952	
4514	0	32928	
4515	0	32916	
4516	0	32904	
4517	0	32825	
4518	0	32700	
4519	0	32528	
4520	0	32432	
4521	0	32348	
4522	0	32412	
4523	0	32684	
4524	0	32785	
4525	0	32824	
4526	0	32804	
4527	0	32782	
4528	0	32812	
4529	0	32964	
4530	0	32968	
4531	0	32968	
4532	0	33013	
4533	0	32960	
4534	0	32983	
4535	0	32960	
4536	0	32768	
4537	0	32728	
4538	0	32648	
4539	0	32540	
4540	0	32556	
4541	0	32529	
4542	0	32348	
4543	0	32644	
4544	0	32728	
4545	0	32788	
4546	0	32808	
4547	0	32776	
4548	0	32852	
4549	0	33064	
4550	0	33000	
4551	0	32992	
4552	0	33088	
4553	0	33025	
4554	0	33104	
4555	0	32828	
4556	0	32641	
4557	0	32644	
4558	0	32636	
4559	0	32572	
4560	0	32728	
4561	0	32637	
4562	0	32383	
4563	0	32564	
4564	0	32740	
4565	0	32784	
4566	0	32876	
4567	0	32720	
4568	0	32804	
4569	0	32920	
4570	0	32972	
4571	0	32992	
4572	0	33036	
4573	0	33036	
4574	0	32832	
4575	0	32815	
4576	0	32820	
4577	0	32732	
4578	0	32584	
4579	0	32472	
4580	0	32446	
4581	0	32600	
4582	0	32468	
4583	0	32616	
4584	0	32624	
4585	0	32656	
4586	0	32904	
4587	0	32944	
4588	0	32984	
4589	0	33064	
4590	0	33032	
4591	0	32996	
4592	0	33038	
4593	0	32970	
4594	0	32848	
4595	0	32741	
4596	0	32774	
4597	0	32780	
4598	0	32628	
4599	0	32576	
4600	0	32568	
4601	0	32524	
4602	0	32364	
4603	0	32556	
4604	0	32628	
4605	0	32684	
4606	0	32888	
4607	0	32916	
4608	0	32876	
4609	0	33016	
4610	0	32940	
4611	0	33148	
4612	0	33040	
4613	0	33028	
4614	0	32986	
4615	0	32884	
4616	0	32860	
4617	0	32717	
4618	0	32560	
4619	0	32416	
4620	0	32412	
4621	0	32432	
4622	0	32400	
4623	0	32576	
4624	0	32712	
4625	0	32893	
4626	0	33060	
4627	0	32992	
4628	0	32976	
4629	0	32832	
4630	0	32832	
4631	0	32868	
4632	0	32984	
4633	0	33096	
4634	0	33060	
4635	0	32864	
4636	0	32692	
4637	0	32764	
4638	0	32642	
4639	0	32444	
4640	0	32460	
4641	0	32592	
4642	0	32376	
4643	0	32568	
4644	0	32712	
4645	0	32852	
4646	0	32880	
4647	0	32824	
4648	0	32932	
4649	0	32996	
4650	0	32892	
4651	0	32832	
4652	0	32900	
4653	0	32908	
4654	0	32917	
4655	0	32908	
4656	0	32912	
4657	0	32942	
4658	0	32772	
4659	0	32509	
4660	0	32520	
4661	0	32399	
4662	0	32297	
4663	0	32560	
4664	0	32640	
4665	0	32748	
4666	0	32920	
4667	0	32980	
4668	0	33008	
4669	0	33012	
4670	0	32940	
4671	0	32920	
4672	0	32868	
4673	0	32932	
4674	0	33012	
4675	0	32924	
4676	0	32908	
4677	0	32784	
4678	0	32524	
4679	0	32448	
4680	0	32494	
4681	0	32548	
4682	0	32452	
4683	0	32612	
4684	0	32768	
4685	0	32848	
4686	0	32868	
4687	0	32916	
4688	0	32984	
4689	0	32940	
4690	0	32912	
4691	0	32840	
4692	0	32976	
4693	0	32936	
4694	0	32984	
4695	0	32916	
4696	0	32808	
4697	0	32685	
4698	0	32434	
4699	0	32428	
4700	0	32505	
4701	0	32592	
4702	0	32484	
4703	0	32520	
4704	0	32737	
4705	0	33000	
4706	0	33284	
4707	0	33184	
4708	0	32844	
4709	0	32797	
4710	0	32887	
4711	0	32836	
4712	0	32926	
4713	0	32792	
4714	0	32857	
4715	0	32824	
4716	0	32806	
4717	0	32732	
4718	0	32672	
4719	0	32568	
4720	0	32528	
4721	0	32592	
4722	0	32396	
4723	0	32620	
4724	0	32796	
4725	0	32824	
4726	0	32780	
4727	0	32904	
4728	0	33044	
4729	0	32908	
4730	0	32796	
4731	0	32784	
4732	0	32848	
4733	0	33037	
4734	0	33064	
4735	0	32980	
4736	0	32816	
4737	0	32840	
4738	0	32668	
4739	0	32608	
4740	0	32528	
4741	0	32500	
4742	0	32252	
4743	0	32455	
4744	0	32600	
4745	0	32816	
4746	0	32836	
4747	0	32896	
4748	0	32940	
4749	0	32960	
4750	0	32928	
4751	0	32928	
4752	0	33040	
4753	0	32941	
4754	0	33020	
4755	0	32980	
4756	0	32846	
4757	0	32616	
4758	0	32577	
4759	0	32500	
4760	0	32596	
4761	0	32556	
4762	0	32389	
4763	0	32664	
4764	0	32785	
4765	0	32704	
4766	0	32836	
4767	0	32832	
4768	0	32948	
4769	0	33040	
4770	0	32950	
4771	0	32869	
4772	0	32932	
4773	0	32904	
4774	0	32920	
4775	0	32936	
4776	0	32904	
4777	0	32997	
4778	0	32684	
4779	0	32492	
4780	0	32400	
4781	0	32392	
4782	0	32332	
4783	0	32568	
4784	0	32816	
4785	0	32884	
4786	0	32840	
4787	0	32848	
4788	0	32832	
4789	0	33037	
4790	0	33064	
4791	0	33000	
4792	0	33037	
4793	0	32996	
4794	0	32960	
4795	0	32802	
4796	0	32776	
4797	0	32744	
4798	0	32648	
4799	0	32396	
4800	0	32480	
4801	0	32488	
4802	0	32336	
4803	0	32436	
4804	0	32592	
4805	0	32848	
4806	0	32956	
4807	0	33156	
4808	0	33168	
4809	0	33052	
4810	0	32869	
4811	0	32816	
4812	0	32920	
4813	0	32868	
4814	0	32908	
4815	0	32764	
4816	0	32832	
4817	0	32704	
4818	0	32726	
4819	0	32509	
4820	0	32580	
4821	0	32552	
4822	0	32384	
4823	0	32580	
4824	0	32716	
4825	0	32808	
4826	0	32804	
4827	0	32800	
4828	0	32856	
4829	0	33032	
4830	0	32920	
4831	0	32848	
4832	0	33000	
4833	0	32964	
4834	0	32948	
4835	0	32892	
4836	0	32880	
4837	0	32804	
4838	0	32760	
4839	0	32584	
4840	0	32592	
4841	0	32496	
4842	0	32476	
4843	0	32516	
4844	0	32604	
4845	0	32639	
4846	0	32792	
4847	0	32804	
4848	0	32876	
4849	0	33012	
4850	0	32972	
4851	0	32968	
4852	0	32984	
4853	0	33008	
4854	0	32965	
4855	0	32896	
4856	0	32848	
4857	0	32820	
4858	0	32748	
4859	0	32416	
4860	0	32600	
4861	0	32572	
4862	0	32412	
4863	0	32588	
4864	0	32716	
4865	0	32709	
4866	0	32834	
4867	0	32792	
4868	0	32840	
4869	0	32980	
4870	0	33000	
4871	0	32968	
4872	0	32900	
4873	0	32960	
4874	0	33044	
4875	0	32972	
4876	0	32880	
4877	0	32720	
4878	0	32628	
4879	0	32392	
4880	0	32474	
4881	0	32526	
4882	0	32436	
4883	0	32568	
4884	0	32704	
4885	0	32862	
4886	0	33048	
4887	0	32884	
4888	0	32928	
4889	0	32957	
4890	0	32817	
4891	0	32856	
4892	0	32876	
4893	0	33000	
4894	0	32940	
4895	0	32880	
4896	0	32784	
4897	0	32804	
4898	0	32846	
4899	0	32520	
4900	0	32388	
4901	0	32468	
4902	0	32420	
4903	0	32604	
4904	0	32784	
4905	0	32820	
4906	0	32884	
4907	0	32940	
4908	0	33024	
4909	0	32980	
4910	0	32868	
4911	0	32868	
4912	0	32940	
4913	0	32856	
4914	0	33044	
4915	0	33030	
4916	0	32766	
4917	0	32736	
4918	0	32828	
4919	0	32668	
4920	0	32596	
4921	0	32372	
4922	0	32304	
4923	0	32480	
4924	0	32608	
4925	0	32624	
4926	0	32764	
4927	0	32828	
4928	0	32868	
4929	0	33094	
4930	0	33104	
4931	0	33000	
4932	0	33056	
4933	0	33088	
4934	0	32996	
4935	0	32888	
4936	0	32736	
4937	0	32709	
4938	0	32684	
4939	0	32448	
4940	0	32536	
4941	0	32516	
4942	0	32292	
4943	0	32500	
4944	0	32740	
4945	0	32958	
4946	0	32869	
4947	0	32744	
4948	0	32828	
4949	0	32916	
4950	0	32944	
4951	0	32984	
4952	0	32972	
4953	0	32956	
4954	0	32970	
4955	0	32864	
4956	0	32764	
4957	0	32704	
4958	0	32750	
4959	0	32597	
4960	0	32584	
4961	0	32576	
4962	0	32408	
4963	0	32508	
4964	0	32588	
4965	0	32736	
4966	0	32961	
4967	0	32904	
4968	0	32968	
4969	0	32860	
4970	0	32897	
4971	0	32808	
4972	0	33036	
4973	0	33068	
4974	0	33020	
4975	0	32916	
4976	0	32728	
4977	0	32860	
4978	0	32744	
4979	0	32448	
4980	0	32472	
4981	0	32448	
4982	0	32269	
4983	0	32528	
4984	0	32720	
4985	0	32932	
4986	0	32960	
4987	0	32968	
4988	0	32908	
4989	0	32908	
4990	0	32832	
4991	0	32812	
4992	0	32952	
4993	0	33032	
4994	0	33056	
4995	0	32948	
4996	0	32776	
4997	0	32704	
4998	0	32620	
4999	0	32352	
5000	0	32344	
5001	0	32620	
5002	0	32612	
5003	0	32732	
5004	0	32776	
5005	0	32804	
5006	0	32836	
5007	0	32860	
5008	0	32804	
5009	0	32956	
5010	0	32896	
5011	0	32888	
5012	0	32918	
5013	0	32856	
5014	0	33028	
5015	0	33061	
5016	0	32956	
5017	0	32696	
5018	0	32668	
5019	0	32464	
5020	0	32484	
5021	0	32508	
5022	0	32340	
5023	0	32600	
5024	0	32708	
5025	0	32840	
5026	0	32904	
5027	0	33012	
5028	0	32972	
5029	0	32920	
5030	0	32852	
5031	0	32836	
5032	0	32992	
5033	0	32988	
5034	0	33012	
5035	0	32840	
5036	0	32784	
5037	0	32768	
5038	0	32728	
5039	0	32544	
5040	0	32584	
5041	0	32628	
5042	0	32456	
5043	0	32556	
5044	0	32580	
5045	0	32816	
5046	0	32853	
5047	0	32780	
5048	0	32956	
5049	0	32964	
5050	0	32860	
5051	0	32932	
5052	0	32989	
5053	0	32908	
5054	0	32941	
5055	0	32924	
5056	0	32860	
5057	0	32780	
5058	0	32656	
5059	0	32328	
5060	0	32524	
5061	0	32556	
5062	0	32468	
5063	0	32632	
5064	0	32708	
5065	0	32769	
5066	0	32900	
5067	0	32876	
5068	0	32848	
5069	0	32884	
5070	0	32820	
5071	0	32836	
5072	0	33012	
5073	0	33020	
5074	0	33068	
5075	0	32984	
5076	0	32856	
5077	0	32776	
5078	0	32640	
5079	0	32624	
5080	0	32580	
5081	0	32454	
5082	0	32204	
5083	0	32440	
5084	0	32692	
5085	0	32842	
5086	0	32936	
5087	0	32813	
5088	0	32816	
5089	0	32996	
5090	0	33006	
5091	0	32964	
5092	0	33076	
5093	0	33040	
5094	0	32814	
5095	0	32824	
5096	0	32992	
5097	0	32976	
5098	0	32800	
5099	0	32480	
5100	0	32336	
5101	0	32344	
5102	0	32168	
5103	0	32492	
5104	0	32724	
5105	0	32813	
5106	0	32916	
5107	0	33012	
5108	0	32892	
5109	0	32892	
5110	0	32940	
5111	0	32872	
5112	0	32968	
5113	0	32988	
5114	0	32996	
5115	0	33057	
5116	0	32832	
5117	0	32872	
5118	0	32792	
5119	0	32500	
5120	0	32476	
5121	0	32544	
5122	0	32357	
5123	0	32528	
5124	0	32720	
5125	0	32904	
5126	0	32920	
5127	0	32896	
5128	0	32876	
5129	0	32836	
5130	0	32844	
5131	0	32944	
5132	0	32960	
5133	0	32877	
5134	0	32968	
5135	0	32926	
5136	0	32836	
5137	0	32928	
5138	0	32744	
5139	0	32532	
5140	0	32484	
5141	0	32509	
5142	0	32352	
5143	0	32592	
5144	0	32728	
5145	0	32784	
5146	0	32960	
5147	0	32924	
5148	0	32840	
5149	0	32900	
5150	0	32832	
5151	0	32848	
5152	0	32892	
5153	0	32900	
5154	0	33064	
5155	0	33032	
5156	0	32928	
5157	0	32860	
5158	0	32604	
5159	0	32416	
5160	0	32512	
5161	0	32504	
5162	0	32320	
5163	0	32449	
5164	0	32668	
5165	0	32909	
5166	0	32997	
5167	0	32902	
5168	0	32924	
5169	0	33112	
5170	0	33076	
5171	0	33052	
5172	0	32893	
5173	0	32784	
5174	0	32988	
5175	0	32876	
5176	0	32748	
5177	0	32644	
5178	0	32640	
5179	0	32480	
5180	0	32702	
5181	0	32636	
5182	0	32320	
5183	0	32484	
5184	0	32612	
5185	0	32732	
5186	0	32756	
5187	0	32832	
5188	0	32856	
5189	0	33032	
5190	0	33112	
5191	0	32936	
5192	0	33056	
5193	0	32928	
5194	0	33077	
5195	0	32968	
5196	0	32720	
5197	0	32606	
5198	0	32608	
5199	0	32532	
5200	0	32590	
5201	0	32560	
5202	0	32392	
5203	0	32508	
5204	0	32717	
5205	0	32812	
5206	0	32956	
5207	0	32884	
5208	0	32944	
5209	0	32901	
5210	0	32956	
5211	0	32888	
5212	0	32960	
5213	0	32972	
5214	0	32980	
5215	0	32956	
5216	0	32792	
5217	0	32744	
5218	0	32706	
5219	0	32509	
5220	0	32492	
5221	0	32568	
5222	0	32448	
5223	0	32484	
5224	0	32644	
5225	0	32728	
5226	0	32829	
5227	0	32852	
5228	0	32980	
5229	0	32936	
5230	0	32944	
5231	0	32900	
5232	0	32944	
5233	0	32880	
5234	0	33016	
5235	0	33012	
5236	0	32864	
5237	0	32892	
5238	0	32748	
5239	0	32460	
5240	0	32428	
5241	0	32436	
5242	0	32165	
5243	0	32316	
5244	0	32740	
5245	0	33088	
5246	0	33188	
5247	0	33116	
5248	0	32924	
5249	0	32712	
5250	0	32764	
5251	0	32748	
5252	0	32840	
5253	0	32800	
5254	0	32860	
5255	0	32776	
5256	0	32632	
5257	0	32588	
5258	0	32664	
5259	0	32476	
5260	0	32512	
5261	0	32496	
5262	0	32100	
5263	0	32104	
5264	0	32428	
5265	0	32637	
5266	0	32952	
5267	0	33004	
5268	0	33084	
5269	0	33152	
5270	0	33088	
5271	0	33040	
5272	0	33172	
5273	0	32992	
5274	0	33016	
5275	0	33036	
5276	0	32836	
5277	0	32639	
5278	0	32392	
5279	0	32324	
5280	0	32420	
5281	0	32542	
5282	0	32340	
5283	0	32617	
5284	0	32772	
5285	0	32940	
5286	0	33177	
5287	0	33244	
5288	0	33356	
5289	0	33208	
5290	0	32948	
5291	0	32932	
5292	0	33165	
5293	0	33464	
5294	0	33661	
5295	0	33580	
5296	0	33484	
5297	0	33348	
5298	0	33336	
5299	0	32993	
5300	0	32802	
5301	0	32532	
5302	0	31944	
5303	0	32032	
5304	0	32232	
5305	0	32428	
5306	0	32508	
5307	0	32396	
5308	0	32272	
5309	0	32376	
5310	0	32528	
5311	0	32774	
5312	0	33040	
5313	0	32590	
5314	0	32804	
5315	0	33172	
5316	0	33384	
5317	0	33404	
5318	0	32900	
5319	0	32252	
5320	0	31886	
5321	0	32105	
5322	0	32112	
5323	0	32420	
5324	0	32824	
5325	0	32880	
5326	0	32868	
5327	0	32876	
5328	0	33022	
5329	0	32797	
5330	0	32656	
5331	0	32624	
5332	0	33008	
5333	0	32928	
5334	0	32996	
5335	0	32860	
5336	0	32668	
5337	0	32704	
5338	0	32948	
5339	0	33000	
5340	0	33036	
5341	0	32788	
5342	0	32261	
5343	0	32152	
5344	0	32228	
5345	0	32644	
5346	0	33192	
5347	0	33248	
5348	0	33068	
5349	0	32920	
5350	0	32700	
5351	0	32644	
5352	0	32732	
5353	0	32816	
5354	0	32840	
5355	0	32700	
5356	0	32646	
5357	0	32709	
5358	0	32668	
5359	0	32526	
5360	0	32680	
5361	0	32677	
5362	0	32432	
5363	0	32687	
5364	0	32900	
5365	0	32848	
5366	0	32768	
5367	0	32480	
5368	0	32453	
5369	0	32584	
5370	0	32374	
5371	0	31408	
5372	0	31816	
5373	0	32248	
5374	0	32898	
5375	0	33372	
5376	0	33600	
5377	0	33893	
5378	0	33884	
5379	0	33580	
5380	0	33336	
5381	0	33220	
5382	0	32488	
5383	0	32324	
5384	0	32236	
5385	0	32508	
5386	0	32476	
5387	0	32486	
5388	0	32776	
5389	0	33053	
5390	0	33212	
5391	0	33625	
5392	0	34140	
5393	0	34180	
5394	0	34228	
5395	0	34152	
5396	0	33556	
5397	0	33552	
5398	0	33088	
5399	0	32780	
5400	0	32741	
5401	0	32448	
5402	0	32180	
5403	0	32136	
5404	0	32656	
5405	0	32620	
5406	0	32548	
5407	0	31940	
5408	0	31664	
5409	0	31676	
5410	0	31824	
5411	0	32216	
5412	0	32586	
5413	0	33108	
5414	0	33172	
5415	0	32972	
5416	0	32784	
5417	0	32784	
5418	0	32224	
5419	0	31949	
5420	0	32464	
5421	0	32468	
5422	0	32404	
5423	0	32522	
5424	0	32512	
5425	0	32248	
5426	0	32432	
5427	0	32540	
5428	0	32676	
5429	0	32992	
5430	0	33068	
5431	0	32948	
5432	0	33364	
5433	0	33348	
5434	0	32969	
5435	0	32500	
5436	0	32560	
5437	0	32664	
5438	0	32708	
5439	0	32524	
5440	0	32564	
5441	0	32848	
5442	0	32788	
5443	0	32636	
5444	0	32860	
5445	0	33381	
5446	0	33292	
5447	0	33148	
5448	0	33244	
5449	0	32876	
5450	0	32148	
5451	0	32416	
5452	0	32732	
5453	0	32930	
5454	0	32984	
5455	0	32772	
5456	0	32952	
5457	0	33016	
5458	0	32732	
5459	0	32284	
5460	0	31496	
5461	0	31124	
5462	0	31196	
5463	0	32095	
5464	0	32916	
5465	0	33384	
5466	0	33912	
5467	0	34376	
5468	0	34577	
5469	0	34696	
5470	0	34236	
5471	0	33204	
5472	0	32838	
5473	0	32960	
5474	0	32908	
5475	0	32184	
5476	0	31164	
5477	0	30809	
5478	0	31536	
5479	0	32212	
5480	0	33140	
5481	0	33480	
5482	0	33448	
5483	0	33636	
5484	0	33972	
5485	0	33732	
5486	0	33060	
5487	0	32496	
5488	0	32648	
5489	0	31952	
5490	0	31452	
5491	0	32041	
5492	0	32832	
5493	0	33324	
5494	0	33888	
5495	0	33600	
5496	0	33316	
5497	0	32836	
5498	0	32356	
5499	0	32042	
5500	0	32236	
5501	0	32604	
5502	0	32912	
5503	0	33398	
5504	0	33512	
5505	0	33696	
5506	0	33776	
5507	0	33676	
5508	0	33428	
5509	0	33408	
5510	0	33180	
5511	0	32796	
5512	0	32508	
5513	0	32136	
5514	0	31924	
5515	0	32060	
5516	0	32308	
5517	0	32332	
5518	0	32172	
5519	0	31820	
5520	0	31876	
5521	0	31528	
5522	0	31376	
5523	0	31756	
5524	0	32287	
5525	0	32824	
5526	0	32728	
5527	0	32644	
5528	0	32556	
5529	0	32748	
5530	0	32800	
5531	0	33024	
5532	0	33156	
5533	0	33168	
5534	0	33276	
5535	0	33124	
5536	0	32444	
5537	0	32316	
5538	0	32749	
5539	0	32720	
5540	0	32788	
5541	0	32472	
5542	0	32172	
5543	0	32320	
5544	0	32596	
5545	0	32864	
5546	0	33077	
5547	0	33287	
5548	0	33324	
5549	0	33601	
5550	0	33648	
5551	0	33376	
5552	0	33240	
5553	0	32436	
5554	0	32109	
5555	0	31836	
5556	0	31764	
5557	0	32312	
5558	0	32912	
5559	0	32660	
5560	0	32416	
5561	0	32396	
5562	0	32608	
5563	0	33137	
5564	0	33718	
5565	0	34332	
5566	0	34508	
5567	0	34142	
5568	0	33804	
5569	0	32800	
5570	0	32472	
5571	0	31840	
5572	0	31476	
5573	0	31952	
5574	0	32698	
5575	0	33176	
5576	0	33648	
5577	0	34112	
5578	0	34280	
5579	0	34008	
5580	0	33920	
5581	0	33656	
5582	0	32881	
5583	0	32508	
5584	0	32184	
5585	0	31673	
5586	0	31612	
5587	0	31804	
5588	0	32364	
5589	0	32428	
5590	0	32636	
5591	0	32248	
5592	0	31584	
5593	0	31846	
5594	0	32502	
5595	0	32936	
5596	0	33492	
5597	0	33872	
5598	0	33732	
5599	0	33208	
5600	0	32812	
5601	0	32676	
5602	0	32716	
5603	0	32620	
5604	0	32656	
5605	0	32640	
5606	0	32428	
5607	0	32376	
5608	0	32584	
5609	0	32804	
5610	0	32856	
5611	0	32824	
5612	0	32664	
5613	0	32440	
5614	0	32428	
5615	0	32484	
5616	0	32776	
5617	0	32792	
5618	0	32644	
5619	0	32456	
5620	0	32100	
5621	0	32076	
5622	0	32202	
5623	0	32520	
5624	0	32684	
5625	0	32856	
5626	0	33048	
5627	0	33320	
5628	0	33060	
5629	0	32980	
5630	0	32904	
5631	0	33028	
5632	0	32990	
5633	0	33168	
5634	0	33316	
5635	0	32940	
5636	0	32668	
5637	0	32576	
5638	0	32705	
5639	0	32872	
5640	0	32688	
5641	0	32608	
5642	0	32304	
5643	0	32237	
5644	0	32484	
5645	0	32852	
5646	0	32916	
5647	0	32624	
5648	0	32925	
5649	0	33121	
5650	0	32912	
5651	0	32780	
5652	0	32708	
5653	0	32508	
5654	0	32800	
5655	0	32788	
5656	0	32676	
5657	0	32704	
5658	0	32928	
5659	0	33188	
5660	0	32786	
5661	0	31884	
5662	0	31972	
5663	0	32168	
5664	0	32376	
5665	0	32924	
5666	0	33240	
5667	0	33444	
5668	0	33580	
5669	0	33348	
5670	0	33156	
5671	0	33192	
5672	0	33652	
5673	0	33828	
5674	0	33556	
5675	0	33360	
5676	0	33076	
5677	0	32504	
5678	0	31988	
5679	0	32180	
5680	0	31656	
5681	0	31452	
5682	0	31816	
5683	0	31576	
5684	0	31444	
5685	0	31896	
5686	0	32844	
5687	0	33608	
5688	0	34056	
5689	0	34660	
5690	0	35008	
5691	0	34672	
5692	0	34236	
5693	0	33829	
5694	0	33604	
5695	0	33336	
5696	0	33007	
5697	0	32692	
5698	0	32548	
5699	0	32564	
5700	0	32492	
5701	0	32008	
5702	0	31456	
5703	0	31576	
5704	0	31722	
5705	0	31932	
5706	0	32052	
5707	0	32296	
5708	0	32328	
5709	0	32416	
5710	0	32352	
5711	0	32436	
5712	0	32512	
5713	0	32676	
5714	0	33316	
5715	0	33476	
5716	0	33176	
5717	0	32788	
5718	0	32428	
5719	0	32176	
5720	0	32424	
5721	0	32504	
5722	0	32648	
5723	0	32736	
5724	0	32804	
5725	0	32792	
5726	0	32820	
5727	0	32864	
5728	0	32936	
5729	0	32857	
5730	0	33140	
5731	0	33414	
5732	0	33312	
5733	0	32992	
5734	0	32638	
5735	0	32866	
5736	0	32944	
5737	0	32852	
5738	0	32732	
5739	0	32696	
5740	0	32516	
5741	0	32436	
5742	0	32500	
5743	0	32616	
5744	0	32724	
5745	0	32716	
5746	0	32912	
5747	0	33004	
5748	0	32944	
5749	0	32968	
5750	0	32940	
5751	0	32972	
5752	0	32924	
5753	0	32936	
5754	0	33008	
5755	0	32928	
5756	0	32872	
5757	0	32684	
5758	0	32729	
5759	0	32708	
5760	0	32446	
5761	0	32412	
5762	0	32376	
5763	0	32476	
5764	0	32688	
5765	0	32692	
5766	0	32800	
5767	0	32820	
5768	0	32902	
5769	0	32904	
5770	0	32996	
5771	0	32997	
5772	0	33036	
5773	0	32984	
5774	0	32964	
5775	0	33020	
5776	0	32892	
5777	0	32668	
5778	0	32558	
5779	0	32592	
5780	0	32536	
5781	0	32412	
5782	0	32348	
5783	0	32256	
5784	0	32408	
5785	0	32604	
5786	0	32732	
5787	0	32865	
5788	0	32996	
5789	0	32984	
5790	0	33088	
5791	0	33144	
5792	0	33154	
5793	0	33152	
5794	0	33216	
5795	0	33188	
5796	0	33064	
5797	0	32832	
5798	0	32796	
5799	0	32788	
5800	0	32576	
5801	0	32464	
5802	0	32436	
5803	0	32540	
5804	0	32580	
5805	0	32604	
5806	0	32612	
5807	0	32665	
5808	0	32724	
5809	0	32732	
5810	0	32828	
5811	0	32868	
5812	0	32856	
5813	0	32912	
5814	0	32968	
5815	0	33034	
5816	0	32876	
5817	0	32770	
5818	0	32632	
5819	0	32636	
5820	0	32476	
5821	0	32416	
5822	0	32388	
5823	0	32557	
5824	0	32710	
5825	0	32782	
5826	0	32800	
5827	0	32964	
5828	0	32980	
5829	0	32949	
5830	0	33056	
5831	0	32956	
5832	0	32844	
5833	0	32800	
5834	0	33072	
5835	0	33092	
5836	0	32868	
5837	0	32712	
5838	0	32544	
5839	0	32716	
5840	0	32388	
5841	0	32284	
5842	0	32328	
5843	0	32620	
5844	0	32840	
5845	0	33008	
5846	0	33012	
5847	0	32872	
5848	0	32736	
5849	0	32804	
5850	0	32796	
5851	0	33012	
5852	0	33296	
5853	0	33132	
5854	0	33048	
5855	0	32976	
5856	0	32748	
5857	0	32608	
5858	0	32558	
5859	0	32560	
5860	0	32396	
5861	0	32372	
5862	0	32440	
5863	0	32417	
5864	0	32732	
5865	0	32808	
5866	0	32832	
5867	0	32932	
5868	0	32968	
5869	0	32936	
5870	0	33024	
5871	0	32944	
5872	0	32912	
5873	0	33000	
5874	0	32960	
5875	0	32957	
5876	0	32816	
5877	0	32637	
5878	0	32540	
5879	0	32760	
5880	0	32784	
5881	0	32628	
5882	0	32416	
5883	0	32448	
5884	0	32632	
5885	0	32824	
5886	0	32820	
5887	0	32884	
5888	0	32880	
5889	0	32884	
5890	0	32885	
5891	0	32924	
5892	0	32980	
5893	0	32992	
5894	0	33036	
5895	0	32984	
5896	0	32885	
5897	0	32644	
5898	0	32608	
5899	0	32568	
5900	0	32388	
5901	0	32432	
5902	0	32340	
5903	0	32612	
5904	0	32956	
5905	0	32876	
5906	0	32873	
5907	0	32908	
5908	0	32828	
5909	0	32864	
5910	0	32924	
5911	0	32904	
5912	0	33028	
5913	0	33032	
5914	0	32992	
5915	0	32952	
5916	0	32836	
5917	0	32724	
5918	0	32636	
5919	0	32616	
5920	0	32412	
5921	0	32272	
5922	0	32248	
5923	0	32652	
5924	0	33084	
5925	0	33090	
5926	0	32932	
5927	0	32940	
5928	0	32852	
5929	0	32608	
5930	0	32708	
5931	0	32884	
5932	0	33060	
5933	0	33008	
5934	0	33120	
5935	0	33048	
5936	0	32836	
5937	0	32637	
5938	0	32580	
5939	0	32544	
5940	0	32516	
5941	0	32412	
5942	0	32445	
5943	0	32524	
5944	0	32676	
5945	0	32680	
5946	0	32801	
5947	0	33020	
5948	0	32996	
5949	0	33005	
5950	0	32972	
5951	0	32932	
5952	0	32892	
5953	0	32876	
5954	0	32948	
5955	0	33153	
5956	0	32822	
5957	0	32748	
5958	0	32604	
5959	0	32564	
5960	0	32479	
5961	0	32382	
5962	0	32400	
5963	0	32532	
5964	0	32732	
5965	0	32816	
5966	0	32854	
5967	0	32916	
5968	0	32900	
5969	0	32888	
5970	0	32892	
5971	0	32952	
5972	0	33032	
5973	0	32888	
5974	0	33044	
5975	0	32952	
5976	0	32796	
5977	0	32768	
5978	0	32644	
5979	0	32632	
5980	0	32464	
5981	0	32428	
5982	0	32409	
5983	0	32552	
5984	0	32784	
5985	0	32813	
5986	0	32856	
5987	0	32849	
5988	0	32888	
5989	0	32952	
5990	0	32836	
5991	0	32908	
5992	0	32902	
5993	0	33024	
5994	0	33056	
5995	0	33060	
5996	0	32924	
5997	0	32760	
5998	0	32568	
5999	0	32564	
6000	0	32584	
6001	0	32396	
6002	0	32356	
6003	0	32336	
6004	0	32600	
6005	0	32740	
6006	0	32879	
6007	0	32908	
6008	0	32900	
6009	0	32796	
6010	0	32928	
6011	0	33108	
6012	0	33036	
6013	0	32968	
6014	0	32984	
6015	0	33020	
6016	0	32996	
6017	0	32920	
6018	0	32948	
6019	0	32700	
6020	0	32444	
6021	0	32208	
6022	0	32342	
6023	0	32394	
6024	0	32760	
6025	0	32744	
6026	0	32852	
6027	0	32901	
6028	0	32960	
6029	0	32892	
6030	0	32968	
6031	0	32984	
6032	0	32876	
6033	0	32792	
6034	0	32941	
6035	0	33064	
6036	0	32884	
6037	0	32860	
6038	0	32620	
6039	0	32384	
6040	0	32369	
6041	0	32464	
6042	0	32500	
6043	0	32612	
6044	0	32776	
6045	0	32856	
6046	0	32824	
6047	0	32736	
6048	0	32916	
6049	0	32940	
6050	0	32976	
6051	0	32901	
6052	0	32992	
6053	0	32964	
6054	0	32980	
6055	0	33000	
6056	0	32792	
6057	0	32796	
6058	0	32624	
6059	0	32496	
6060	0	32548	
6061	0	32560	
6062	0	32396	
6063	0	32576	
6064	0	32764	
6065	0	32798	
6066	0	32832	
6067	0	32848	
6068	0	32878	
6069	0	32988	
6070	0	32968	
6071	0	32968	
6072	0	32981	
6073	0	32912	
6074	0	32992	
6075	0	32968	
6076	0	32834	
6077	0	32756	
6078	0	32628	
6079	0	32520	
6080	0	32512	
6081	0	32516	
6082	0	32488	
6083	0	32616	
6084	0	32728	
6085	0	32832	
6086	0	32844	
6087	0	32768	
6088	0	32780	
6089	0	32824	
6090	0	32868	
6091	0	32817	
6092	0	32852	
6093	0	33056	
6094	0	33108	
6095	0	33032	
6096	0	32828	
6097	0	32668	
6098	0	32632	
6099	0	32496	
6100	0	32580	
6101	0	32652	
6102	0	32432	
6103	0	32508	
6104	0	32692	
6105	0	32816	
6106	0	32908	
6107	0	32976	
6108	0	32956	
6109	0	32752	
6110	0	32580	
6111	0	32644	
6112	0	32888	
6113	0	32916	
6114	0	32960	
6115	0	33092	
6116	0	32997	
6117	0	32884	
6118	0	32652	
6119	0	32616	
6120	0	32487	
6121	0	32432	
6122	0	32241	
6123	0	32540	
6124	0	32768	
6125	0	32896	
6126	0	32928	
6127	0	32752	
6128	0	32808	
6129	0	32996	
6130	0	32996	
6131	0	32928	
6132	0	33032	
6133	0	33052	
6134	0	33080	
6135	0	32888	
6136	0	32784	
6137	0	32766	
6138	0	32688	
6139	0	32492	
6140	0	32654	
6141	0	32576	
6142	0	32292	
6143	0	32496	
6144	0	32704	
6145	0	32708	
6146	0	32924	
6147	0	32944	
6148	0	33000	
6149	0	33026	
6150	0	32878	
6151	0	32826	
6152	0	32982	
6153	0	32880	
6154	0	32984	
6155	0	32980	
6156	0	32776	
6157	0	32812	
6158	0	32644	
6159	0	32524	
6160	0	32688	
6161	0	32680	
6162	0	32440	
6163	0	32490	
6164	0	32624	
6165	0	32716	
6166	0	32892	
6167	0	32880	
6168	0	32948	
6169	0	32968	
6170	0	32916	
6171	0	32828	
6172	0	32926	
6173	0	32900	
6174	0	33056	
6175	0	32880	
6176	0	32824	
6177	0	32816	
6178	0	32604	
6179	0	32520	
6180	0	32668	
6181	0	32656	
6182	0	32348	
6183	0	32408	
6184	0	32617	
6185	0	32812	
6186	0	32998	
6187	0	33036	
6188	0	32970	
6189	0	32904	
6190	0	32912	
6191	0	32776	
6192	0	32928	
6193	0	32980	
6194	0	33029	
6195	0	33004	
6196	0	32816	
6197	0	32816	
6198	0	32638	
6199	0	32556	
6200	0	32536	
6201	0	32636	
6202	0	32416	
6203	0	32597	
6204	0	32592	
6205	0	32736	
6206	0	33012	
6207	0	33006	
6208	0	32826	
6209	0	32736	
6210	0	32752	
6211	0	33016	
6212	0	33072	
6213	0	33024	
6214	0	33024	
6215	0	32832	
6216	0	32616	
6217	0	32616	
6218	0	32744	
6219	0	32628	
6220	0	32625	
6221	0	32604	
6222	0	32389	
6223	0	32584	
6224	0	32864	
6225	0	32804	
6226	0	32820	
6227	0	32860	
6228	0	32952	
6229	0	32868	
6230	0	32976	
6231	0	32932	
6232	0	32936	
6233	0	32996	
6234	0	33024	
6235	0	32981	
6236	0	32753	
6237	0	32572	
6238	0	32480	
6239	0	32524	
6240	0	32492	
6241	0	32636	
6242	0	32552	
6243	0	32576	
6244	0	32732	
6245	0	32853	
6246	0	33112	
6247	0	33044	
6248	0	32840	
6249	0	32832	
6250	0	32788	
6251	0	32832	
6252	0	32916	
6253	0	32980	
6254	0	32948	
6255	0	32884	
6256	0	32752	
6257	0	32774	
6258	0	32656	
6259	0	32613	
6260	0	32716	
6261	0	32484	
6262	0	32352	
6263	0	32444	
6264	0	32644	
6265	0	32788	
6266	0	32940	
6267	0	32892	
6268	0	32916	
6269	0	32944	
6270	0	32964	
6271	0	32908	
6272	0	33037	
6273	0	33052	
6274	0	32944	
6275	0	32952	
6276	0	32768	
6277	0	32712	
6278	0	32604	
6279	0	32452	
6280	0	32468	
6281	0	32533	
6282	0	32460	
6283	0	32532	
6284	0	32676	
6285	0	32752	
6286	0	32876	
6287	0	32879	
6288	0	32926	
6289	0	33017	
6290	0	32960	
6291	0	32928	
6292	0	32902	
6293	0	32916	
6294	0	32948	
6295	0	33000	
6296	0	32881	
6297	0	32764	
6298	0	32729	
6299	0	32549	
6300	0	32444	
6301	0	32444	
6302	0	32460	
6303	0	32640	
6304	0	32720	
6305	0	32776	
6306	0	32872	
6307	0	32896	
6308	0	32884	
6309	0	32944	
6310	0	32868	
6311	0	32992	
6312	0	33012	
6313	0	33044	
6314	0	33000	
6315	0	33088	
6316	0	32780	
6317	0	32660	
6318	0	32488	
6319	0	32436	
6320	0	32392	
6321	0	32513	
6322	0	32484	
6323	0	32628	
6324	0	32748	
6325	0	32800	
6326	0	32852	
6327	0	32836	
6328	0	32900	
6329	0	32940	
6330	0	32996	
6331	0	32928	
6332	0	32908	
6333	0	32996	
6334	0	32972	
6335	0	32983	
6336	0	32996	
6337	0	32700	
6338	0	32640	
6339	0	32428	
6340	0	32468	
6341	0	32592	
6342	0	32592	
6343	0	32548	
6344	0	32848	
6345	0	32828	
6346	0	32668	
6347	0	32644	
6348	0	32792	
6349	0	32964	
6350	0	32946	
6351	0	32932	
6352	0	32900	
6353	0	32900	
6354	0	33012	
6355	0	33000	
6356	0	32772	
6357	0	32766	
6358	0	32629	
6359	0	32596	
6360	0	32580	
6361	0	32556	
6362	0	32444	
6363	0	32568	
6364	0	32648	
6365	0	32748	
6366	0	32908	
6367	0	32928	
6368	0	32910	
6369	0	32956	
6370	0	32928	
6371	0	32912	
6372	0	32856	
6373	0	32848	
6374	0	32996	
6375	0	33000	
6376	0	32788	
6377	0	32856	
6378	0	32628	
6379	0	32512	
6380	0	32516	
6381	0	32512	
6382	0	32608	
6383	0	32576	
6384	0	32716	
6385	0	32728	
6386	0	32868	
6387	0	32960	
6388	0	32820	
6389	0	32872	
6390	0	32960	
6391	0	32934	
6392	0	32912	
6393	0	33016	
6394	0	33036	
6395	0	32904	
6396	0	32804	
6397	0	32732	
6398	0	32760	
6399	0	32576	
6400	0	32600	
6401	0	32505	
6402	0	32356	
6403	0	32364	
6404	0	32684	
6405	0	32876	
6406	0	32908	
6407	0	32828	
6408	0	32912	
6409	0	32904	
6410	0	32741	
6411	0	32812	
6412	0	32956	
6413	0	33020	
6414	0	33148	
6415	0	33100	
6416	0	32892	
6417	0	32800	
6418	0	32612	
6419	0	32392	
6420	0	32457	
6421	0	32512	
6422	0	32456	
6423	0	32592	
6424	0	32724	
6425	0	32828	
6426	0	32892	
6427	0	32884	
6428	0	32952	
6429	0	32844	
6430	0	32716	
6431	0	32828	
6432	0	33088	
6433	0	33045	
6434	0	33038	
6435	0	33081	
6436	0	33016	
6437	0	32760	
6438	0	32528	
6439	0	32412	
6440	0	32388	
6441	0	32448	
6442	0	32464	
6443	0	32532	
6444	0	32704	
6445	0	32713	
6446	0	32780	
6447	0	32852	
6448	0	33028	
6449	0	32900	
6450	0	32924	
6451	0	33008	
6452	0	33132	
6453	0	33032	
6454	0	32944	
6455	0	32868	
6456	0	32824	
6457	0	32713	
6458	0	32620	
6459	0	32576	
6460	0	32536	
6461	0	32544	
6462	0	32356	
6463	0	32588	
6464	0	32880	
6465	0	32877	
6466	0	32916	
6467	0	32808	
6468	0	32888	
6469	0	32841	
6470	0	32900	
6471	0	33053	
6472	0	33060	
6473	0	32860	
6474	0	32976	
6475	0	33032	
6476	0	32728	
6477	0	32512	
6478	0	32580	
6479	0	32636	
6480	0	32600	
6481	0	32540	
6482	0	32300	
6483	0	32404	
6484	0	32644	
6485	0	32744	
6486	0	32908	
6487	0	33032	
6488	0	33040	
6489	0	33040	
6490	0	33004	
6491	0	32928	
6492	0	32925	
6493	0	32928	
6494	0	32976	
6495	0	32980	
6496	0	32912	
6497	0	32744	
6498	0	32592	
6499	0	32520	
6500	0	32572	
6501	0	32548	
6502	0	32284	
6503	0	32448	
6504	0	32720	
6505	0	32804	
6506	0	32864	
6507	0	32860	
6508	0	32924	
6509	0	32844	
6510	0	32820	
6511	0	32964	
6512	0	32968	
6513	0	33028	
6514	0	33120	
6515	0	33220	
6516	0	32788	
6517	0	32676	
6518	0	32548	
6519	0	32388	
6520	0	32444	
6521	0	32612	
6522	0	32608	
6523	0	32668	
6524	0	32772	
6525	0	32712	
6526	0	32884	
6527	0	32996	
6528	0	32948	
6529	0	32900	
6530	0	32784	
6531	0	32816	
6532	0	32840	
6533	0	32912	
6534	0	32988	
6535	0	33116	
6536	0	32816	
6537	0	32736	
6538	0	32644	
6539	0	32488	
6540	0	32428	
6541	0	32456	
6542	0	32429	
6543	0	32628	
6544	0	32769	
6545	0	32836	
6546	0	32972	
6547	0	32952	
6548	0	33108	
6549	0	32960	
6550	0	32684	
6551	0	32562	
6552	0	32824	
6553	0	33033	
6554	0	33008	
6555	0	33044	
6556	0	32784	
6557	0	32740	
6558	0	32736	
6559	0	32608	
6560	0	32464	
6561	0	32509	
6562	0	32502	
6563	0	32533	
6564	0	32732	
6565	0	32880	
6566	0	32864	
6567	0	32808	
6568	0	32888	
6569	0	33008	
6570	0	32988	
6571	0	32960	
6572	0	32968	
6573	0	32877	
6574	0	33000	
6575	0	33000	
6576	0	32832	
6577	0	32828	
6578	0	32572	
6579	0	32456	
6580	0	32452	
6581	0	32433	
6582	0	32392	
6583	0	32576	
6584	0	32761	
6585	0	32864	
6586	0	32764	
6587	0	32844	
6588	0	33028	
6589	0	32991	
6590	0	33032	
6591	0	32980	
6592	0	32944	
6593	0	32804	
6594	0	32912	
6595	0	33004	
6596	0	32808	
6597	0	32888	
6598	0	32792	
6599	0	32532	
6600	0	32412	
6601	0	32516	
6602	0	32516	
6603	0	32656	
6604	0	32644	
6605	0	32604	
6606	0	32812	
6607	0	33028	
6608	0	33104	
6609	0	32912	
6610	0	32868	
6611	0	32849	
6612	0	32820	
6613	0	32996	
6614	0	33020	
6615	0	32981	
6616	0	32744	
6617	0	32784	
6618	0	32780	
6619	0	32572	
6620	0	32592	
6621	0	32516	
6622	0	32468	
6623	0	32484	
6624	0	32628	
6625	0	32644	
6626	0	32796	
6627	0	32820	
6628	0	32880	
6629	0	32944	
6630	0	32932	
6631	0	32976	
6632	0	33008	
6633	0	32900	
6634	0	32980	
6635	0	33164	
6636	0	32932	
6637	0	32756	
6638	0	32564	
6639	0	32556	
6640	0	32436	
6641	0	32472	
6642	0	32432	
6643	0	32484	
6644	0	32720	
6645	0	32816	
6646	0	32908	
6647	0	32836	
6648	0	32960	
6649	0	32809	
6650	0	32908	
6651	0	32958	
6652	0	32968	
6653	0	33000	
6654	0	32980	
6655	0	32972	
6656	0	32724	
6657	0	32712	
6658	0	32569	
6659	0	32508	
6660	0	32596	
6661	0	32672	
6662	0	32440	
6663	0	32436	
6664	0	32768	
6665	0	32880	
6666	0	32908	
6667	0	32812	
6668	0	32892	
6669	0	32904	
6670	0	32964	
6671	0	32877	
6672	0	32972	
6673	0	32996	
6674	0	32964	
6675	0	33032	
6676	0	32788	
6677	0	32749	
6678	0	32684	
6679	0	32520	
6680	0	32528	
6681	0	32548	
6682	0	32436	
6683	0	32536	
6684	0	32664	
6685	0	32689	
6686	0	32882	
6687	0	32892	
6688	0	32940	
6689	0	33024	
6690	0	33005	
6691	0	32868	
6692	0	32909	
6693	0	32960	
6694	0	32872	
6695	0	32940	
6696	0	32805	
6697	0	32684	
6698	0	32696	
6699	0	32500	
6700	0	32556	
6701	0	32580	
6702	0	32388	
6703	0	32492	
6704	0	32832	
6705	0	32744	
6706	0	32800	
6707	0	32873	
6708	0	32918	
6709	0	32981	
6710	0	32992	
6711	0	32793	
6712	0	32988	
6713	0	32908	
6714	0	33000	
6715	0	33020	
6716	0	32784	
6717	0	32778	
6718	0	32860	
6719	0	32712	
6720	0	32508	
6721	0	32580	
6722	0	32324	
6723	0	32340	
6724	0	32616	
6725	0	32744	
6726	0	32822	
6727	0	32784	
6728	0	32956	
6729	0	32997	
6730	0	32884	
6731	0	32924	
6732	0	32960	
6733	0	32972	
6734	0	33000	
6735	0	33100	
6736	0	32796	
6737	0	32776	
6738	0	32761	
6739	0	32584	
6740	0	32612	
6741	0	32477	
6742	0	32292	
6743	0	32392	
6744	0	32576	
6745	0	32744	
6746	0	32752	
6747	0	32968	
6748	0	32952	
6749	0	33052	
6750	0	33020	
6751	0	32980	
6752	0	32968	
6753	0	32957	
6754	0	32973	
6755	0	33068	
6756	0	32808	
6757	0	32688	
6758	0	32688	
6759	0	32604	
6760	0	32460	
6761	0	32360	
6762	0	32300	
6763	0	32556	
6764	0	32742	
6765	0	32836	
6766	0	32964	
6767	0	32956	
6768	0	32928	
6769	0	32884	
6770	0	32960	
6771	0	32934	
6772	0	32800	
6773	0	32904	
6774	0	32961	
6775	0	33025	
6776	0	32800	
6777	0	32757	
6778	0	32708	
6779	0	32568	
6780	0	32596	
6781	0	32622	
6782	0	32568	
6783	0	32536	
6784	0	32564	
6785	0	32640	
6786	0	32816	
6787	0	32744	
6788	0	32836	
6789	0	32896	
6790	0	32940	
6791	0	32980	
6792	0	32908	
6793	0	32920	
6794	0	33088	
6795	0	33288	
6796	0	33060	
6797	0	32888	
6798	0	32632	
6799	0	32372	
6800	0	32380	
6801	0	32557	
6802	0	32452	
6803	0	32532	
6804	0	32684	
6805	0	32704	
6806	0	32748	
6807	0	32884	
6808	0	32836	
6809	0	32980	
6810	0	32960	
6811	0	32932	
6812	0	32988	
6813	0	32924	
6814	0	32800	
6815	0	32933	
6816	0	33032	
6817	0	32980	
6818	0	32692	
6819	0	32532	
6820	0	32604	
6821	0	32556	
6822	0	32388	
6823	0	32384	
6824	0	32580	
6825	0	32640	
6826	0	32920	
6827	0	32952	
6828	0	32816	
6829	0	32957	
6830	0	32964	
6831	0	32888	
6832	0	32992	
6833	0	32920	
6834	0	32948	
6835	0	32916	
6836	0	32820	
6837	0	32924	
6838	0	32784	
6839	0	32600	
6840	0	32560	
6841	0	32596	
6842	0	32416	
6843	0	32572	
6844	0	32576	
6845	0	32472	
6846	0	32586	
6847	0	32860	
6848	0	33188	
6849	0	33108	
6850	0	32980	
6851	0	32976	
6852	0	32872	
6853	0	32860	
6854	0	32920	
6855	0	32848	
6856	0	32716	
6857	0	32768	
6858	0	32728	
6859	0	32572	
6860	0	32453	
6861	0	32604	
6862	0	32416	
6863	0	32516	
6864	0	32720	
6865	0	32753	
6866	0	32856	
6867	0	32928	
6868	0	33080	
6869	0	33120	
6870	0	33020	
6871	0	32972	
6872	0	32892	
6873	0	32770	
6874	0	32842	
6875	0	32880	
6876	0	32836	
6877	0	32868	
6878	0	32952	
6879	0	32688	
6880	0	32448	
6881	0	32424	
6882	0	32316	
6883	0	32474	
6884	0	32604	
6885	0	32632	
6886	0	32680	
6887	0	32721	
6888	0	32800	
6889	0	32976	
6890	0	32984	
6891	0	33024	
6892	0	33044	
6893	0	32985	
6894	0	32932	
6895	0	32980	
6896	0	33052	
6897	0	32892	
6898	0	32716	
6899	0	32708	
6900	0	32512	
6901	0	32572	
6902	0	32392	
6903	0	32436	
6904	0	32629	
6905	0	32772	
6906	0	32972	
6907	0	32944	
6908	0	32928	
6909	0	32880	
6910	0	32768	
6911	0	32801	
6912	0	32944	
6913	0	32912	
6914	0	33040	
6915	0	33031	
6916	0	32877	
6917	0	32830	
6918	0	32676	
6919	0	32544	
6920	0	32555	
6921	0	32524	
6922	0	32416	
6923	0	32476	
6924	0	32708	
6925	0	32772	
6926	0	32884	
6927	0	32792	
6928	0	32840	
6929	0	32928	
6930	0	32893	
6931	0	32968	
6932	0	32992	
6933	0	32988	
6934	0	33096	
6935	0	33045	
6936	0	32804	
6937	0	32688	
6938	0	32604	
6939	0	32544	
6940	0	32508	
6941	0	32532	
6942	0	32364	
6943	0	32452	
6944	0	32508	
6945	0	32608	
6946	0	33004	
6947	0	33045	
6948	0	32876	
6949	0	32868	
6950	0	32960	
6951	0	32996	
6952	0	32988	
6953	0	32828	
6954	0	33012	
6955	0	32996	
6956	0	32788	
6957	0	32668	
6958	0	32604	
6959	0	32461	
6960	0	32573	
6961	0	32856	
6962	0	32892	
6963	0	32660	
6964	0	32508	
6965	0	32488	
6966	0	32736	
6967	0	32840	
6968	0	32860	
6969	0	32880	
6970	0	32960	
6971	0	33000	
6972	0	33088	
6973	0	32826	
6974	0	32720	
6975	0	32868	
6976	0	32772	
6977	0	32884	
6978	0	32836	
6979	0	32592	
6980	0	32473	
6981	0	32536	
6982	0	32372	
6983	0	32508	
6984	0	32620	
6985	0	32720	
6986	0	32940	
6987	0	32932	
6988	0	32829	
6989	0	32973	
6990	0	32960	
6991	0	32936	
6992	0	33096	
6993	0	32980	
6994	0	33012	
6995	0	32988	
6996	0	32692	
6997	0	32600	
6998	0	32648	
6999	0	32615	
7000	0	32608	
7001	0	32564	
7002	0	32364	
7003	0	32526	
7004	0	32736	
7005	0	32744	
7006	0	32904	
7007	0	32920	
7008	0	32856	
7009	0	32886	
7010	0	32924	
7011	0	32880	
7012	0	32940	
7013	0	33036	
7014	0	33016	
7015	0	32932	
7016	0	32920	
7017	0	32877	
7018	0	32728	
7019	0	32548	
7020	0	32548	
7021	0	32416	
7022	0	32192	
7023	0	32460	
7024	0	32736	
7025	0	32764	
7026	0	32909	
7027	0	32852	
7028	0	32936	
7029	0	33029	
7030	0	33004	
7031	0	32940	
7032	0	32988	
7033	0	32788	
7034	0	32820	
7035	0	32968	
7036	0	32881	
7037	0	32852	
7038	0	32764	
7039	0	32576	
7040	0	32493	
7041	0	32468	
7042	0	32460	
7043	0	32528	
7044	0	32640	
7045	0	32748	
7046	0	32812	
7047	0	32852	
7048	0	32864	
7049	0	32900	
7050	0	32888	
7051	0	32884	
7052	0	32936	
7053	0	32984	
7054	0	33052	
7055	0	33049	
7056	0	32997	
7057	0	32948	
7058	0	32768	
7059	0	32588	
7060	0	32344	
7061	0	32360	
7062	0	32281	
7063	0	32492	
7064	0	32692	
7065	0	32828	
7066	0	32844	
7067	0	32832	
7068	0	32808	
7069	0	32892	
7070	0	32929	
7071	0	32908	
7072	0	33096	
7073	0	33160	
7074	0	33088	
7075	0	32862	
7076	0	32820	
7077	0	32812	
7078	0	32728	
7079	0	32568	
7080	0	32496	
7081	0	32576	
7082	0	32393	
7083	0	32464	
7084	0	32628	
7085	0	32812	
7086	0	32820	
7087	0	32796	
7088	0	32792	
7089	0	32952	
7090	0	32960	
7091	0	33020	
7092	0	33140	
7093	0	33252	
7094	0	32910	
7095	0	32752	
7096	0	32624	
7097	0	32664	
7098	0	32588	
7099	0	32572	
7100	0	32660	
7101	0	32748	
7102	0	32512	
7103	0	32604	
7104	0	32812	
7105	0	32984	
7106	0	32672	
7107	0	32476	
7108	0	32684	
7109	0	32852	
7110	0	32829	
7111	0	33000	
7112	0	32964	
7113	0	33032	
7114	0	33176	
7115	0	33080	
7116	0	32900	
7117	0	32712	
7118	0	32612	
7119	0	32588	
7120	0	32612	
7121	0	32560	
7122	0	32520	
7123	0	32296	
7124	0	32576	
7125	0	32644	
7126	0	32748	
7127	0	32792	
7128	0	32904	
7129	0	32948	
7130	0	32968	
7131	0	32940	
7132	0	33024	
7133	0	33032	
7134	0	32956	
7135	0	33004	
7136	0	32900	
7137	0	32848	
7138	0	32662	
7139	0	32564	
7140	0	32532	
7141	0	32536	
7142	0	32424	
7143	0	32464	
7144	0	32629	
7145	0	32812	
7146	0	32928	
7147	0	32956	
7148	0	32924	
7149	0	32924	
7150	0	33000	
7151	0	33000	
7152	0	32964	
7153	0	32692	
7154	0	32760	
7155	0	32916	
7156	0	32880	
7157	0	32802	
7158	0	32684	
7159	0	32551	
7160	0	32517	
7161	0	32420	
7162	0	32352	
7163	0	32653	
7164	0	32940	
7165	0	33013	
7166	0	32916	
7167	0	32900	
7168	0	32790	
7169	0	32850	
7170	0	32980	
7171	0	32932	
7172	0	32952	
7173	0	32980	
7174	0	32980	
7175	0	32796	
7176	0	32740	
7177	0	32661	
7178	0	32544	
7179	0	32536	
7180	0	32528	
7181	0	32757	
7182	0	32684	
7183	0	32664	
7184	0	32872	
7185	0	32732	
7186	0	32668	
7187	0	32732	
7188	0	32880	
7189	0	32943	
7190	0	32788	
7191	0	32744	
7192	0	32952	
7193	0	32924	
7194	0	33064	
7195	0	33052	
7196	0	32852	
7197	0	32854	
7198	0	32712	
7199	0	32616	
7200	0	32592	
7201	0	32664	
7202	0	32516	
7203	0	32484	
7204	0	32473	
7205	0	32548	
7206	0	32640	
7207	0	32776	
7208	0	32946	
7209	0	32992	
7210	0	33048	
7211	0	33045	
7212	0	32932	
7213	0	32928	
7214	0	33025	
7215	0	33024	
7216	0	32948	
7217	0	32760	
7218	0	32724	
7219	0	32604	
7220	0	32520	
7221	0	32628	
7222	0	32392	
7223	0	32324	
7224	0	32560	
7225	0	32784	
7226	0	32792	
7227	0	32720	
7228	0	32816	
7229	0	33017	
7230	0	33166	
7231	0	33236	
7232	0	33040	
7233	0	32888	
7234	0	32796	
7235	0	32728	
7236	0	32684	
7237	0	32873	
7238	0	32969	
7239	0	32776	
7240	0	32560	
7241	0	32488	
7242	0	32336	
7243	0	32396	
7244	0	32476	
7245	0	32712	
7246	0	32864	
7247	0	32836	
7248	0	32940	
7249	0	32996	
7250	0	32980	
7251	0	32896	
7252	0	32896	
7253	0	33044	
7254	0	32968	
7255	0	33032	
7256	0	32960	
7257	0	32768	
7258	0	32584	
7259	0	32552	
7260	0	32560	
7261	0	32480	
7262	0	32244	
7263	0	32472	
7264	0	32612	
7265	0	32688	
7266	0	32836	
7267	0	32974	
7268	0	32958	
7269	0	32972	
7270	0	32944	
7271	0	32909	
7272	0	32944	
7273	0	32968	
7274	0	32984	
7275	0	32945	
7276	0	32916	
7277	0	32812	
7278	0	32700	
7279	0	32548	
7280	0	32512	
7281	0	32548	
7282	0	32424	
7283	0	32514	
7284	0	32696	
7285	0	32876	
7286	0	32932	
7287	0	32856	
7288	0	32764	
7289	0	32836	
7290	0	32876	
7291	0	32772	
7292	0	32896	
7293	0	33092	
7294	0	33261	
7295	0	33172	
7296	0	32748	
7297	0	32696	
7298	0	32636	
7299	0	32472	
7300	0	32488	
7301	0	32532	
7302	0	32452	
7303	0	32464	
7304	0	32624	
7305	0	32752	
7306	0	32900	
7307	0	32844	
7308	0	32793	
7309	0	32869	
7310	0	33004	
7311	0	32892	
7312	0	32945	
7313	0	32964	
7314	0	32968	
7315	0	32940	
7316	0	32804	
7317	0	32692	
7318	0	32918	
7319	0	33114	
7320	0	32844	
7321	0	32516	
7322	0	32264	
7323	0	32316	
7324	0	32412	
7325	0	32615	
7326	0	32808	
7327	0	32888	
7328	0	32788	
7329	0	32832	
7330	0	32860	
7331	0	32852	
7332	0	33060	
7333	0	33056	
7334	0	33040	
7335	0	33012	
7336	0	32872	
7337	0	32744	
7338	0	32748	
7339	0	32584	
7340	0	32464	
7341	0	32540	
7342	0	32340	
7343	0	32436	
7344	0	32752	
7345	0	32780	
7346	0	32912	
7347	0	32920	
7348	0	32944	
7349	0	32964	
7350	0	32920	
7351	0	32612	
7352	0	32672	
7353	0	32780	
7354	0	32910	
7355	0	33048	
7356	0	33034	
7357	0	32988	
7358	0	32865	
7359	0	32598	
7360	0	32488	
7361	0	32528	
7362	0	32464	
7363	0	32404	
7364	0	32464	
7365	0	32600	
7366	0	32772	
7367	0	32916	
7368	0	32928	
7369	0	33024	
7370	0	33036	
7371	0	33160	
7372	0	33088	
7373	0	32908	
7374	0	32933	
7375	0	32980	
7376	0	32636	
7377	0	32528	
7378	0	32552	
7379	0	32533	
7380	0	32592	
7381	0	32584	
7382	0	32534	
7383	0	32568	
7384	0	32664	
7385	0	32804	
7386	0	32872	
7387	0	32992	
7388	0	32992	
7389	0	32928	
7390	0	32728	
7391	0	32652	
7392	0	32880	
7393	0	32968	
7394	0	33124	
7395	0	33104	
7396	0	32964	
7397	0	32804	
7398	0	32740	
7399	0	32580	
7400	0	32428	
7401	0	32464	
7402	0	32392	
7403	0	32504	
7404	0	32696	
7405	0	32728	
7406	0	32792	
7407	0	32918	
7408	0	32852	
7409	0	33000	
7410	0	33124	
7411	0	32924	
7412	0	32832	
7413	0	32928	
7414	0	32964	
7415	0	32912	
7416	0	32861	
7417	0	32764	
7418	0	32765	
7419	0	32648	
7420	0	32500	
7421	0	32508	
7422	0	32292	
7423	0	32568	
7424	0	32712	
7425	0	32876	
7426	0	32912	
7427	0	32808	
7428	0	32948	
7429	0	33088	
7430	0	32924	
7431	0	32736	
7432	0	32772	
7433	0	32820	
7434	0	33040	
7435	0	33184	
7436	0	32924	
7437	0	32808	
7438	0	32652	
7439	0	32588	
7440	0	32604	
7441	0	32464	
7442	0	32336	
7443	0	32414	
7444	0	32552	
7445	0	32680	
7446	0	32796	
7447	0	32880	
7448	0	32910	
7449	0	32992	
7450	0	33052	
7451	0	32968	
7452	0	33056	
7453	0	33012	
7454	0	32964	
7455	0	32984	
7456	0	32824	
7457	0	32668	
7458	0	32544	
7459	0	32529	
7460	0	32496	
7461	0	32504	
7462	0	32440	
7463	0	32556	
7464	0	32712	
7465	0	32844	
7466	0	33000	
7467	0	33048	
7468	0	32956	
7469	0	32884	
7470	0	32880	
7471	0	32908	
7472	0	32684	
7473	0	32676	
7474	0	32984	
7475	0	33024	
7476	0	32900	
7477	0	32808	
7478	0	32812	
7479	0	32696	
7480	0	32732	
7481	0	32604	
7482	0	32396	
7483	0	32412	
7484	0	32696	
7485	0	32684	
7486	0	32608	
7487	0	32644	
7488	0	32708	
7489	0	32768	
7490	0	32940	
7491	0	33053	
7492	0	33060	
7493	0	33052	
7494	0	33204	
7495	0	33084	
7496	0	32820	
7497	0	32644	
7498	0	32584	
7499	0	32572	
7500	0	32472	
7501	0	32508	
7502	0	32328	
7503	0	32408	
7504	0	32744	
7505	0	32752	
7506	0	32772	
7507	0	32864	
7508	0	33052	
7509	0	33064	
7510	0	33148	
7511	0	32936	
7512	0	32920	
7513	0	32840	
7514	0	32864	
7515	0	32829	
7516	0	32901	
7517	0	32797	
7518	0	32812	
7519	0	32732	
7520	0	32608	
7521	0	32620	
7522	0	32334	
7523	0	32389	
7524	0	32424	
7525	0	32600	
7526	0	32656	
7527	0	32716	
7528	0	32960	
7529	0	33084	
7530	0	33064	
7531	0	32964	
7532	0	32989	
7533	0	33005	
7534	0	32996	
7535	0	33157	
7536	0	32976	
7537	0	32964	
7538	0	32729	
7539	0	32500	
7540	0	32460	
7541	0	32356	
7542	0	32384	
7543	0	32516	
7544	0	32544	
7545	0	32600	
7546	0	32768	
7547	0	32800	
7548	0	32968	
7549	0	32890	
7550	0	33060	
7551	0	32988	
7552	0	32960	
7553	0	32860	
7554	0	32972	
7555	0	33056	
7556	0	32976	
7557	0	32956	
7558	0	33076	
7559	0	32832	
7560	0	32424	
7561	0	32180	
7562	0	32288	
7563	0	32428	
7564	0	32668	
7565	0	32788	
7566	0	32785	
7567	0	32848	
7568	0	32784	
7569	0	32944	
7570	0	32976	
7571	0	32784	
7572	0	32692	
7573	0	32908	
7574	0	33047	
7575	0	33008	
7576	0	32905	
7577	0	32796	
7578	0	32793	
7579	0	32676	
7580	0	32632	
7581	0	32588	
7582	0	32480	
7583	0	32428	
7584	0	32600	
7585	0	32760	
7586	0	32776	
7587	0	32796	
7588	0	32856	
7589	0	32912	
7590	0	32964	
7591	0	32904	
7592	0	32978	
7593	0	33000	
7594	0	32933	
7595	0	32944	
7596	0	32704	
7597	0	32704	
7598	0	32768	
7599	0	32696	
7600	0	32648	
7601	0	32660	
7602	0	32416	
7603	0	32416	
7604	0	32665	
7605	0	32836	
7606	0	32824	
7607	0	32864	
7608	0	32816	
7609	0	32844	
7610	0	32840	
7611	0	32852	
7612	0	32864	
7613	0	32864	
7614	0	32980	
7615	0	33004	
7616	0	32864	
7617	0	32772	
7618	0	32737	
7619	0	32756	
7620	0	32644	
7621	0	32646	
7622	0	32692	
7623	0	32620	
7624	0	32660	
7625	0	32536	
7626	0	32568	
7627	0	32724	
7628	0	32757	
7629	0	32824	
7630	0	32980	
7631	0	32989	
7632	0	33133	
7633	0	33085	
7634	0	33044	
7635	0	32948	
7636	0	32876	
7637	0	32592	
7638	0	32528	
7639	0	32612	
7640	0	32516	
7641	0	32516	
7642	0	32456	
7643	0	32454	
7644	0	32708	
7645	0	32836	
7646	0	32876	
7647	0	32986	
7648	0	32904	
7649	0	32984	
7650	0	32845	
7651	0	32740	
7652	0	32832	
7653	0	32944	
7654	0	32908	
7655	0	32900	
7656	0	32844	
7657	0	32924	
7658	0	32856	
7659	0	32662	
7660	0	32631	
7661	0	32548	
7662	0	32416	
7663	0	32400	
7664	0	32637	
7665	0	32752	
7666	0	32697	
7667	0	32832	
7668	0	32940	
7669	0	32924	
7670	0	32936	
7671	0	32912	
7672	0	33064	
7673	0	33173	
7674	0	33005	
7675	0	33020	
7676	0	32924	
7677	0	32720	
7678	0	32640	
7679	0	32580	
7680	0	32564	
7681	0	32596	
7682	0	32420	
7683	0	32368	
7684	0	32518	
7685	0	32772	
7686	0	32784	
7687	0	32808	
7688	0	32804	
7689	0	32916	
7690	0	33032	
7691	0	32996	
7692	0	32840	
7693	0	32872	
7694	0	32952	
7695	0	32908	
7696	0	32868	
7697	0	32696	
7698	0	32662	
7699	0	32632	
7700	0	32564	
7701	0	32636	
7702	0	32608	
7703	0	32588	
7704	0	32592	
7705	0	32593	
7706	0	32500	
7707	0	32804	
7708	0	32884	
7709	0	32985	
7710	0	33120	
7711	0	32900	
7712	0	32952	
7713	0	32864	
7714	0	32988	
7715	0	33004	
7716	0	32996	
7717	0	32750	
7718	0	32596	
7719	0	32473	
7720	0	32456	
7721	0	32628	
7722	0	32516	
7723	0	32564	
7724	0	32652	
7725	0	32772	
7726	0	32900	
7727	0	32886	
7728	0	32804	
7729	0	32876	
7730	0	32836	
7731	0	32872	
7732	0	32857	
7733	0	32880	
7734	0	32974	
7735	0	32969	
7736	0	32824	
7737	0	32745	
7738	0	32684	
7739	0	32672	
7740	0	32632	
7741	0	32560	
7742	0	32496	
7743	0	32492	
7744	0	32668	
7745	0	32788	
7746	0	32724	
7747	0	32788	
7748	0	32800	
7749	0	32912	
7750	0	32992	
7751	0	33104	
7752	0	32992	
7753	0	33068	
7754	0	33012	
7755	0	32868	
7756	0	32749	
7757	0	32724	
7758	0	32880	
7759	0	32700	
7760	0	32500	
7761	0	32524	
7762	0	32496	
7763	0	32428	
7764	0	32540	
7765	0	32664	
7766	0	32789	
7767	0	32844	
7768	0	32884	
7769	0	32896	
7770	0	32976	
7771	0	32905	
7772	0	32864	
7773	0	32896	
7774	0	33000	
7775	0	32936	
7776	0	32912	
7777	0	32860	
7778	0	32788	
7779	0	32708	
7780	0	32428	
7781	0	32553	
7782	0	32516	
7783	0	32504	
7784	0	32552	
7785	0	32724	
7786	0	32780	
7787	0	32800	
7788	0	32816	
7789	0	32920	
7790	0	33036	
7791	0	32940	
7792	0	32812	
7793	0	32784	
7794	0	32940	
7795	0	33164	
7796	0	33160	
7797	0	32940	
7798	0	32838	
7799	0	32620	
7800	0	32297	
7801	0	32208	
7802	0	32452	
7803	0	32492	
7804	0	32600	
7805	0	32844	
7806	0	32956	
7807	0	32976	
7808	0	33012	
7809	0	32940	
7810	0	32936	
7811	0	32901	
7812	0	32796	
7813	0	32784	
7814	0	32780	
7815	0	32884	
7816	0	32996	
7817	0	32956	
7818	0	32856	
7819	0	32752	
7820	0	32492	
7821	0	32404	
7822	0	32416	
7823	0	32500	
7824	0	32596	
7825	0	32628	
7826	0	32653	
7827	0	32968	
7828	0	32908	
7829	0	32973	
7830	0	32936	
7831	0	32828	
7832	0	33076	
7833	0	33068	
7834	0	33070	
7835	0	32996	
7836	0	32852	
7837	0	32692	
7838	0	32632	
7839	0	32621	
7840	0	32633	
7841	0	32604	
7842	0	32460	
7843	0	32352	
7844	0	32501	
7845	0	32708	
7846	0	32772	
7847	0	32896	
7848	0	32816	
7849	0	32852	
7850	0	32910	
7851	0	32948	
7852	0	32868	
7853	0	32948	
7854	0	33080	
7855	0	33069	
7856	0	32968	
7857	0	32849	
7858	0	32712	
7859	0	32792	
7860	0	32596	
7861	0	32636	
7862	0	32516	
7863	0	32356	
7864	0	32378	
7865	0	32572	
7866	0	32720	
7867	0	32989	
7868	0	33016	
7869	0	32917	
7870	0	32924	
7871	0	32824	
7872	0	32808	
7873	0	32778	
7874	0	32960	
7875	0	33044	
7876	0	32992	
7877	0	32792	
7878	0	32852	
7879	0	32732	
7880	0	32644	
7881	0	32644	
7882	0	32572	
7883	0	32492	
7884	0	32536	
7885	0	32712	
7886	0	32772	
7887	0	32876	
7888	0	32916	
7889	0	32860	
7890	0	32860	
7891	0	32784	
7892	0	32812	
7893	0	32868	
7894	0	32992	
7895	0	33024	
7896	0	32848	
7897	0	32660	
7898	0	32581	
7899	0	32660	
7900	0	32476	
7901	0	32556	
7902	0	32556	
7903	0	32698	
7904	0	32892	
7905	0	32908	
7906	0	32976	
7907	0	32988	
7908	0	32910	
7909	0	32856	
7910	0	32836	
7911	0	32876	
7912	0	32920	
7913	0	32960	
7914	0	32972	
7915	0	32976	
7916	0	32921	
7917	0	32820	
7918	0	32740	
7919	0	32676	
7920	0	32512	
7921	0	32496	
7922	0	32468	
7923	0	32380	
7924	0	32478	
7925	0	32676	
7926	0	32648	
7927	0	32848	
7928	0	33024	
7929	0	33132	
7930	0	33000	
7931	0	32718	
7932	0	32704	
7933	0	32796	
7934	0	32924	
7935	0	33060	
7936	0	33070	
7937	0	32824	
7938	0	32760	
7939	0	32700	
7940	0	32564	
7941	0	32400	
7942	0	32436	
7943	0	32460	
7944	0	32644	
7945	0	32768	
7946	0	32848	
7947	0	32880	
7948	0	32892	
7949	0	32852	
7950	0	32908	
7951	0	32876	
7952	0	32828	
7953	0	32969	
7954	0	33004	
7955	0	32952	
7956	0	32984	
7957	0	32816	
7958	0	32860	
7959	0	32720	
7960	0	32516	
7961	0	32456	
7962	0	32476	
7963	0	32412	
7964	0	32492	
7965	0	32733	
7966	0	32800	
7967	0	32880	
7968	0	32904	
7969	0	32908	
7970	0	32940	
7971	0	32848	
7972	0	32960	
7973	0	33052	
7974	0	32936	
7975	0	32881	
7976	0	32932	
7977	0	32832	
7978	0	32756	
7979	0	32676	
7980	0	32568	
7981	0	32512	
7982	0	32521	
7983	0	32416	
7984	0	32588	
7985	0	32696	
7986	0	32860	
7987	0	32960	
7988	0	32916	
7989	0	32740	
7990	0	32732	
7991	0	32804	
7992	0	32980	
7993	0	33028	
7994	0	33030	
7995	0	33013	
7996	0	32980	
7997	0	32788	
7998	0	32736	
7999	0	32600	
8000	0	32492	
8001	0	32409	
8002	0	32400	
8003	0	32500	
8004	0	32720	
8005	0	32840	
8006	0	32828	
8007	0	32796	
8008	0	32834	
8009	0	32808	
8010	0	33002	
8011	0	33008	
8012	0	33028	
8013	0	33158	
8014	0	33120	
8015	0	32960	
8016	0	32900	
8017	0	32704	
8018	0	32796	
8019	0	32616	
8020	0	32532	
8021	0	32484	
8022	0	32300	
8023	0	32352	
8024	0	32390	
8025	0	32440	
8026	0	32668	
8027	0	32952	
8028	0	32998	
8029	0	33096	
8030	0	33048	
8031	0	32972	
8032	0	32936	
8033	0	32892	
8034	0	32912	
8035	0	32984	
8036	0	33080	
8037	0	32820	
8038	0	32656	
8039	0	32564	
8040	0	32536	
8041	0	32540	
8042	0	32650	
8043	0	32356	
8044	0	32472	
8045	0	32640	
8046	0	32880	
8047	0	33006	
8048	0	33016	
8049	0	32920	
8050	0	32917	
8051	0	32852	
8052	0	32916	
8053	0	32932	
8054	0	32902	
8055	0	32936	
8056	0	32780	
8057	0	32742	
8058	0	32745	
8059	0	32496	
8060	0	32453	
8061	0	32592	
8062	0	32608	
8063	0	32592	
8064	0	32744	
8065	0	32854	
8066	0	32840	
8067	0	32916	
8068	0	32908	
8069	0	32832	
8070	0	32932	
8071	0	32840	
8072	0	32868	
8073	0	32948	
8074	0	32928	
8075	0	32988	
8076	0	32960	
8077	0	32788	
8078	0	32693	
8079	0	32637	
8080	0	32476	
8081	0	32404	
8082	0	32608	
8083	0	32536	
8084	0	32588	
8085	0	32648	
8086	0	32753	
8087	0	32928	
8088	0	32948	
8089	0	32980	
8090	0	32936	
8091	0	32860	
8092	0	32832	
8093	0	32905	
8094	0	32937	
8095	0	32992	
8096	0	32992	
8097	0	32824	
8098	0	32830	
8099	0	32692	
8100	0	32620	
8101	0	32544	
8102	0	32484	
8103	0	32396	
8104	0	32378	
8105	0	32689	
8106	0	32816	
8107	0	32942	
8108	0	32780	
8109	0	32908	
8110	0	32792	
8111	0	32860	
8112	0	32940	
8113	0	33032	
8114	0	33240	
8115	0	33272	
8116	0	33016	
8117	0	32684	
8118	0	32524	
8119	0	32512	
8120	0	32448	
8121	0	32520	
8122	0	32476	
8123	0	32460	
8124	0	32528	
8125	0	32692	
8126	0	32972	
8127	0	33024	
8128	0	32853	
8129	0	32736	
8130	0	32744	
8131	0	33004	
8132	0	32924	
8133	0	32989	
8134	0	33097	
8135	0	32904	
8136	0	32780	
8137	0	32746	
8138	0	32672	
8139	0	32652	
8140	0	32608	
8141	0	32548	
8142	0	32568	
8143	0	32592	
8144	0	32676	
8145	0	32752	
8146	0	32712	
8147	0	32684	
8148	0	32792	
8149	0	32868	
8150	0	32904	
8151	0	32984	
8152	0	33004	
8153	0	32968	
8154	0	32932	
8155	0	32924	
8156	0	32775	
8157	0	32596	
8158	0	32485	
8159	0	32652	
8160	0	32653	
8161	0	32800	
8162	0	32808	
8163	0	32748	
8164	0	32600	
8165	0	32712	
8166	0	32697	
8167	0	32841	
8168	0	32796	
8169	0	32848	
8170	0	32868	
8171	0	32868	
8172	0	32841	
8173	0	32896	
8174	0	32892	
8175	0	32968	
8176	0	32885	
8177	0	32900	
8178	0	32804	
8179	0	32630	
8180	0	32476	
8181	0	32566	
8182	0	32662	
8183	0	32464	
8184	0	32424	
8185	0	32604	
8186	0	32708	
8187	0	32904	
8188	0	32888	
8189	0	32908	
8190	0	33068	
8191	0	32904	
8192	0	32924	
8193	0	33004	
8194	0	32980	
8195	0	32968	
8196	0	32836	
8197	0	32764	
8198	0	32872	
8199	0	32668	
8200	0	32484	
8201	0	32528	
8202	0	32661	
8203	0	32568	
8204	0	32616	
8205	0	32692	
8206	0	32804	
8207	0	32688	
8208	0	32716	
8209	0	32896	
8210	0	32960	
8211	0	32996	
8212	0	32944	
8213	0	32916	
8214	0	32984	
8215	0	33052	
8216	0	32924	
8217	0	32744	
8218	0	32748	
8219	0	32644	
8220	0	32472	
8221	0	32549	
8222	0	32637	
8223	0	32533	
8224	0	32576	
8225	0	32640	
8226	0	32624	
8227	0	32792	
8228	0	32852	
8229	0	32964	
8230	0	33004	
8231	0	32984	
8232	0	32920	
8233	0	32948	
8234	0	32844	
8235	0	32896	
8236	0	32861	
8237	0	32818	
8238	0	32760	
8239	0	32780	
8240	0	32708	
8241	0	32521	
8242	0	32428	
8243	0	32352	
8244	0	32580	
8245	0	32720	
8246	0	32780	
8247	0	32928	
8248	0	32892	
8249	0	32849	
8250	0	32840	
8251	0	32868	
8252	0	33040	
8253	0	33048	
8254	0	32964	
8255	0	32936	
8256	0	32884	
8257	0	32776	
8258	0	32676	
8259	0	32636	
8260	0	32500	
8261	0	32536	
8262	0	32520	
8263	0	32524	
8264	0	32688	
8265	0	32849	
8266	0	32816	
8267	0	32736	
8268	0	32780	
8269	0	32892	
8270	0	32788	
8271	0	32876	
8272	0	32928	
8273	0	33084	
8274	0	33068	
8275	0	33212	
8276	0	33108	
8277	0	32816	
8278	0	32826	
8279	0	32732	
8280	0	32524	
8281	0	32456	
8282	0	32608	
8283	0	32344	
8284	0	32168	
8285	0	32300	
8286	0	32697	
8287	0	32960	
8288	0	33216	
8289	0	33256	
8290	0	33069	
8291	0	32888	
8292	0	32728	
8293	0	32756	
8294	0	32828	
8295	0	32933	
8296	0	33024	
8297	0	32832	
8298	0	32717	
8299	0	32628	
8300	0	32556	
8301	0	32660	
8302	0	32592	
8303	0	32436	
8304	0	32516	
8305	0	32708	
8306	0	32752	
8307	0	32852	
8308	0	32892	
8309	0	32924	
8310	0	32985	
8311	0	32896	
8312	0	32860	
8313	0	32909	
8314	0	32986	
8315	0	33124	
8316	0	33004	
8317	0	32704	
8318	0	32580	
8319	0	32640	
8320	0	32652	
8321	0	32608	
8322	0	32560	
8323	0	32448	
8324	0	32484	
8325	0	32561	
8326	0	32686	
8327	0	32868	
8328	0	32808	
8329	0	32604	
8330	0	32741	
8331	0	32828	
8332	0	32868	
8333	0	32948	
8334	0	33028	
8335	0	33072	
8336	0	33148	
8337	0	32972	
8338	0	32840	
8339	0	32684	
8340	0	32348	
8341	0	32316	
8342	0	32316	
8343	0	31896	
8344	0	31800	
8345	0	32172	
8346	0	32772	
8347	0	33168	
8348	0	33101	
8349	0	33072	
8350	0	32960	
8351	0	32960	
8352	0	33217	
8353	0	33188	
8354	0	32996	
8355	0	32844	
8356	0	32800	
8357	0	32820	
8358	0	33060	
8359	0	33288	
8360	0	32944	
8361	0	32096	
8362	0	32304	
8363	0	32320	
8364	0	32536	
8365	0	32768	
8366	0	32608	
8367	0	32864	
8368	0	33092	
8369	0	33268	
8370	0	33068	
8371	0	32768	
8372	0	33096	
8373	0	33296	
8374	0	33092	
8375	0	33388	
8376	0	33613	
8377	0	33484	
8378	0	33268	
8379	0	32968	
8380	0	32228	
8381	0	31980	
8382	0	32020	
8383	0	32648	
8384	0	32884	
8385	0	33352	
8386	0	33629	
8387	0	33516	
8388	0	33172	
8389	0	32432	
8390	0	32176	
8391	0	32452	
8392	0	32196	
8393	0	30408	
8394	0	30920	
8395	0	31992	
8396	0	32636	
8397	0	32606	
8398	0	33016	
8399	0	33524	
8400	0	33908	
8401	0	34208	
8402	0	34276	
8403	0	34050	
8404	0	34186	
8405	0	34592	
8406	0	34412	
8407	0	34236	
8408	0	34332	
8409	0	33668	
8410	0	32624	
8411	0	32248	
8412	0	31484	
8413	0	30436	
8414	0	30196	
8415	0	30402	
8416	0	30486	
8417	0	30625	
8418	0	31712	
8419	0	32484	
8420	0	32856	
8421	0	33484	
8422	0	33580	
8423	0	33760	
8424	0	34140	
8425	0	34188	
8426	0	34020	
8427	0	33676	
8428	0	33432	
8429	0	33109	
8430	0	32664	
8431	0	32349	
8432	0	32312	
8433	0	32136	
8434	0	31544	
8435	0	31316	
8436	0	30928	
8437	0	31012	
8438	0	30728	
8439	0	30160	
8440	0	30176	
8441	0	30924	
8442	0	32188	
8443	0	33180	
8444	0	34108	
8445	0	34644	
8446	0	34751	
8447	0	34656	
8448	0	34808	
8449	0	34880	
8450	0	35044	
8451	0	35224	
8452	0	35784	
8453	0	35208	
8454	0	33616	
8455	0	30932	
8456	0	29581	
8457	0	29452	
8458	0	29720	
8459	0	29016	
8460	0	28320	
8461	0	28880	
8462	0	31060	
8463	0	32976	
8464	0	34456	
8465	0	35992	
8466	0	36800	
8467	0	37196	
8468	0	36492	
8469	0	35881	
8470	0	35348	
8471	0	34468	
8472	0	33108	
8473	0	33336	
8474	0	32885	
8475	0	32612	
8476	0	32344	
8477	0	32108	
8478	0	32086	
8479	0	31980	
8480	0	30592	
8481	0	28188	
8482	0	28232	
8483	0	25394	
8484	0	25940	
8485	0	29596	
8486	0	33648	
8487	0	37240	
8488	0	39204	
8489	0	40020	
8490	0	39960	
8491	0	38952	
8492	0	37468	
8493	0	36176	
8494	0	35008	
8495	0	33720	
8496	0	32364	
8497	0	31436	
8498	0	31272	
8499	0	30688	
8500	0	30460	
8501	0	30780	
8502	0	30660	
8503	0	30172	
8504	0	30160	
8505	0	29944	
8506	0	30260	
8507	0	30932	
8508	0	31304	
8509	0	31740	
8510	0	32184	
8511	0	32860	
8512	0	33236	
8513	0	33556	
8514	0	33628	
8515	0	33632	
8516	0	34096	
8517	0	33840	
8518	0	32570	
8519	0	32656	
8520	0	33008	
8521	0	33092	
8522	0	32908	
8523	0	31944	
8524	0	31652	
8525	0	31436	
8526	0	31480	
8527	0	31336	
8528	0	30966	
8529	0	30977	
8530	0	30312	
8531	0	30552	
8532	0	32712	
8533	0	33848	
8534	0	35204	
8535	0	35320	
8536	0	34580	
8537	0	34948	
8538	0	33880	
8539	0	33768	
8540	0	34512	
8541	0	35936	
8542	0	36300	
8543	0	35580	
8544	0	32808	
8545	0	31092	
8546	0	32188	
8547	0	32784	
8548	0	32720	
8549	0	33452	
8550	0	33664	
8551	0	33124	
8552	0	32200	
8553	0	30712	
8554	0	29705	
8555	0	30624	
8556	0	30844	
8557	0	31324	
8558	0	31508	
8559	0	32816	
8560	0	33414	
8561	0	34360	
8562	0	34696	
8563	0	34740	
8564	0	34840	
8565	0	34128	
8566	0	32768	
8567	0	32384	
8568	0	32332	
8569	0	32128	
8570	0	32588	
8571	0	32880	
8572	0	33764	
8573	0	33544	
8574	0	33264	
8575	0	33052	
8576	0	33217	
8577	0	32744	
8578	0	31732	
8579	0	30500	
8580	0	29720	
8581	0	30032	
8582	0	31052	
8583	0	31993	
8584	0	33200	
8585	0	33566	
8586	0	33866	
8587	0	34428	
8588	0	34648	
8589	0	33960	
8590	0	33770	
8591	0	33208	
8592	0	32792	
8593	0	32879	
8594	0	33316	
8595	0	32864	
8596	0	32405	
8597	0	32324	
8598	0	32096	
8599	0	32316	
8600	0	32052	
8601	0	31708	
8602	0	30456	
8603	0	30300	
8604	0	30748	
8605	0	31048	
8606	0	31388	
8607	0	32360	
8608	0	30852	
8609	0	30004	
8610	0	32132	
8611	0	33820	
8612	0	34472	
8613	0	34504	
