# OpenSignals Text File Format. Version 1
# {"00:07:80:4D:2E:9E": {"sensor": ["EMG"], "device name": "00:07:80:4D:2E:9E", "column": ["nSeq", "DI", "CH1"], "sync interval": 2, "time": "12:29:38.305", "comments": "", "device connection": "BTH00:07:80:4D:2E:9E", "channels": [1], "keywords": "", "mode": 0, "digital IO": [0, 1], "firmware version": 774, "device": "biosignalsplux", "position": 0, "sampling rate": 1000, "label": ["CH1"], "resolution": [16], "date": "2020-8-1", "special": [{}]}}
# EndOfHeader
0	0	32676	
1	0	32736	
2	0	32728	
3	0	32693	
4	0	32720	
5	0	32788	
6	0	32752	
7	0	32820	
8	0	32824	
9	0	32868	
10	0	32729	
11	0	33024	
12	0	32980	
13	0	32780	
14	0	32800	
15	0	32780	
16	0	32828	
17	0	32804	
18	0	32692	
19	0	32700	
20	0	32732	
21	0	32756	
22	0	32724	
23	0	32660	
24	0	32700	
25	0	32736	
26	0	32696	
27	0	32780	
28	0	32800	
29	0	32852	
30	0	32840	
31	0	32806	
32	0	32772	
33	0	32836	
34	0	32812	
35	0	32900	
36	0	32768	
37	0	32778	
38	0	32796	
39	0	32832	
40	0	32776	
41	0	32732	
42	0	32548	
43	0	32668	
44	0	32724	
45	0	32708	
46	0	32816	
47	0	32772	
48	0	32856	
49	0	32828	
50	0	32804	
51	0	32796	
52	0	32844	
53	0	32846	
54	0	32813	
55	0	32756	
56	0	32749	
57	0	32840	
58	0	32780	
59	0	32740	
60	0	32676	
61	0	32676	
62	0	32756	
63	0	32692	
64	0	32684	
65	0	32788	
66	0	32748	
67	0	32820	
68	0	32804	
69	0	32832	
70	0	32888	
71	0	32868	
72	0	32798	
73	0	32828	
74	0	32848	
75	0	32924	
76	0	32844	
77	0	32744	
78	0	32732	
79	0	32756	
80	0	32692	
81	0	32768	
82	0	32804	
83	0	32760	
84	0	32792	
85	0	32700	
86	0	32736	
87	0	32798	
88	0	32774	
89	0	32860	
90	0	32948	
91	0	32898	
92	0	32856	
93	0	32856	
94	0	32744	
95	0	32757	
96	0	32788	
97	0	32828	
98	0	32800	
99	0	32822	
100	0	32692	
101	0	32703	
102	0	32764	
103	0	32752	
104	0	32700	
105	0	32750	
106	0	32720	
107	0	32876	
108	0	32844	
109	0	32877	
110	0	32872	
111	0	32688	
112	0	32794	
113	0	32784	
114	0	32704	
115	0	32884	
116	0	32936	
117	0	32838	
118	0	32900	
119	0	32750	
120	0	32716	
121	0	32716	
122	0	32796	
123	0	32692	
124	0	32632	
125	0	32686	
126	0	32720	
127	0	32756	
128	0	32794	
129	0	32833	
130	0	32832	
131	0	32846	
132	0	32864	
133	0	32820	
134	0	32810	
135	0	32850	
136	0	32776	
137	0	32802	
138	0	32788	
139	0	32772	
140	0	32904	
141	0	32701	
142	0	32592	
143	0	32768	
144	0	32712	
145	0	32668	
146	0	32788	
147	0	32788	
148	0	32840	
149	0	32796	
150	0	32876	
151	0	32796	
152	0	32856	
153	0	32960	
154	0	32860	
155	0	32836	
156	0	32796	
157	0	32760	
158	0	32700	
159	0	32700	
160	0	32750	
161	0	32744	
162	0	32776	
163	0	32676	
164	0	32764	
165	0	32889	
166	0	32740	
167	0	32736	
168	0	32804	
169	0	32744	
170	0	32808	
171	0	32792	
172	0	32920	
173	0	32840	
174	0	32804	
175	0	32860	
176	0	32954	
177	0	32720	
178	0	32711	
179	0	32741	
180	0	32724	
181	0	32692	
182	0	32774	
183	0	32680	
184	0	32712	
185	0	32692	
186	0	32728	
187	0	32888	
188	0	32976	
189	0	32840	
190	0	32836	
191	0	32788	
192	0	32864	
193	0	32829	
194	0	32860	
195	0	32824	
196	0	32776	
197	0	32744	
198	0	32844	
199	0	32792	
200	0	32628	
201	0	32768	
202	0	32764	
203	0	32704	
204	0	32764	
205	0	32824	
206	0	32764	
207	0	32820	
208	0	32836	
209	0	32773	
210	0	32808	
211	0	32740	
212	0	32706	
213	0	32826	
214	0	32896	
215	0	32936	
216	0	32868	
217	0	32708	
218	0	32836	
219	0	32888	
220	0	32736	
221	0	32784	
222	0	32820	
223	0	32545	
224	0	32620	
225	0	32749	
226	0	32951	
227	0	32644	
228	0	32772	
229	0	32849	
230	0	32852	
231	0	32792	
232	0	32814	
233	0	32854	
234	0	32892	
235	0	32848	
236	0	32736	
237	0	32893	
238	0	32812	
239	0	32544	
240	0	32604	
241	0	32668	
242	0	32945	
243	0	32776	
244	0	32644	
245	0	32748	
246	0	32784	
247	0	32732	
248	0	32770	
249	0	32828	
250	0	32860	
251	0	32920	
252	0	32888	
253	0	32800	
254	0	32812	
255	0	32873	
256	0	32840	
257	0	32821	
258	0	32700	
259	0	32612	
260	0	32752	
261	0	32700	
262	0	32700	
263	0	32718	
264	0	32714	
265	0	32712	
266	0	32832	
267	0	32824	
268	0	32740	
269	0	32812	
270	0	32820	
271	0	32792	
272	0	32760	
273	0	32872	
274	0	32865	
275	0	32840	
276	0	32824	
277	0	32748	
278	0	32704	
279	0	32748	
280	0	32784	
281	0	32786	
282	0	32720	
283	0	32628	
284	0	32728	
285	0	32940	
286	0	32844	
287	0	32784	
288	0	32680	
289	0	32778	
290	0	32784	
291	0	32812	
292	0	32781	
293	0	32877	
294	0	32752	
295	0	32805	
296	0	32820	
297	0	32816	
298	0	32720	
299	0	32788	
300	0	32676	
301	0	32737	
302	0	32732	
303	0	32646	
304	0	32704	
305	0	32756	
306	0	32804	
307	0	32860	
308	0	32832	
309	0	32696	
310	0	32792	
311	0	32828	
312	0	32856	
313	0	32956	
314	0	32948	
315	0	32896	
316	0	32792	
317	0	32664	
318	0	32684	
319	0	32772	
320	0	32702	
321	0	32632	
322	0	32716	
323	0	32886	
324	0	32624	
325	0	32808	
326	0	32913	
327	0	32740	
328	0	32792	
329	0	32680	
330	0	32752	
331	0	32857	
332	0	32892	
333	0	32888	
334	0	32788	
335	0	32836	
336	0	32762	
337	0	32732	
338	0	32752	
339	0	32812	
340	0	32860	
341	0	32824	
342	0	32661	
343	0	32760	
344	0	32621	
345	0	32684	
346	0	32828	
347	0	32848	
348	0	32724	
349	0	32792	
350	0	32820	
351	0	32820	
352	0	32870	
353	0	32900	
354	0	32885	
355	0	32772	
356	0	32840	
357	0	32845	
358	0	32764	
359	0	32856	
360	0	32712	
361	0	32662	
362	0	32676	
363	0	32748	
364	0	32776	
365	0	32828	
366	0	32620	
367	0	32712	
368	0	32732	
369	0	32832	
370	0	32856	
371	0	32808	
372	0	32912	
373	0	32864	
374	0	32800	
375	0	32852	
376	0	32724	
377	0	32684	
378	0	32792	
379	0	32685	
380	0	32741	
381	0	32833	
382	0	32724	
383	0	32713	
384	0	32748	
385	0	32788	
386	0	32773	
387	0	32772	
388	0	32736	
389	0	32748	
390	0	32820	
391	0	32836	
392	0	32892	
393	0	32796	
394	0	32736	
395	0	32756	
396	0	32864	
397	0	32756	
398	0	32760	
399	0	32804	
400	0	32740	
401	0	32712	
402	0	32740	
403	0	32687	
404	0	32688	
405	0	32717	
406	0	32744	
407	0	32740	
408	0	32768	
409	0	32772	
410	0	32964	
411	0	32960	
412	0	32804	
413	0	32901	
414	0	32845	
415	0	32728	
416	0	32740	
417	0	32756	
418	0	32796	
419	0	32708	
420	0	32724	
421	0	32724	
422	0	32748	
423	0	32822	
424	0	32780	
425	0	32720	
426	0	32788	
427	0	32852	
428	0	32768	
429	0	32748	
430	0	32820	
431	0	32836	
432	0	32812	
433	0	32804	
434	0	32809	
435	0	32916	
436	0	32776	
437	0	32878	
438	0	32716	
439	0	32662	
440	0	32680	
441	0	32644	
442	0	32756	
443	0	32740	
444	0	32724	
445	0	32820	
446	0	32900	
447	0	32668	
448	0	32680	
449	0	32704	
450	0	32897	
451	0	32876	
452	0	32788	
453	0	32752	
454	0	32776	
455	0	32940	
456	0	33028	
457	0	32791	
458	0	32560	
459	0	32669	
460	0	32721	
461	0	32792	
462	0	32830	
463	0	32726	
464	0	32737	
465	0	32773	
466	0	32808	
467	0	32853	
468	0	32728	
469	0	32712	
470	0	32801	
471	0	32704	
472	0	32792	
473	0	32848	
474	0	32784	
475	0	32780	
476	0	32804	
477	0	32920	
478	0	32836	
479	0	32780	
480	0	32668	
481	0	32696	
482	0	32728	
483	0	32742	
484	0	32653	
485	0	32732	
486	0	32716	
487	0	32772	
488	0	32860	
489	0	32864	
490	0	32964	
491	0	32888	
492	0	32828	
493	0	32793	
494	0	32852	
495	0	32760	
496	0	32672	
497	0	32748	
498	0	32837	
499	0	32732	
500	0	32912	
501	0	32836	
502	0	32662	
503	0	32677	
504	0	32652	
505	0	32696	
506	0	32736	
507	0	32766	
508	0	32708	
509	0	32832	
510	0	32765	
511	0	32792	
512	0	32852	
513	0	32820	
514	0	32844	
515	0	32832	
516	0	32916	
517	0	32829	
518	0	32736	
519	0	32776	
520	0	32728	
521	0	32686	
522	0	32768	
523	0	32732	
524	0	32729	
525	0	32788	
526	0	32840	
527	0	32732	
528	0	32740	
529	0	32740	
530	0	32737	
531	0	32932	
532	0	32968	
533	0	32769	
534	0	32740	
535	0	32788	
536	0	32872	
537	0	32796	
538	0	32761	
539	0	32812	
540	0	32816	
541	0	32822	
542	0	32640	
543	0	32556	
544	0	32764	
545	0	32852	
546	0	32804	
547	0	32812	
548	0	32724	
549	0	32796	
550	0	32796	
551	0	32832	
552	0	32811	
553	0	32792	
554	0	32797	
555	0	32916	
556	0	32816	
557	0	32924	
558	0	32756	
559	0	32716	
560	0	32696	
561	0	32688	
562	0	32700	
563	0	32740	
564	0	32692	
565	0	32661	
566	0	32728	
567	0	32920	
568	0	32856	
569	0	32744	
570	0	32716	
571	0	32704	
572	0	32820	
573	0	32944	
574	0	32856	
575	0	32800	
576	0	32800	
577	0	32740	
578	0	32740	
579	0	32736	
580	0	32728	
581	0	32792	
582	0	32681	
583	0	32692	
584	0	32800	
585	0	32718	
586	0	32748	
587	0	32784	
588	0	32772	
589	0	32801	
590	0	32888	
591	0	32794	
592	0	32792	
593	0	32704	
594	0	32748	
595	0	32744	
596	0	33020	
597	0	32932	
598	0	32886	
599	0	32689	
600	0	32769	
601	0	32662	
602	0	32720	
603	0	32669	
604	0	32676	
605	0	32693	
606	0	32687	
607	0	32771	
608	0	32764	
609	0	32792	
610	0	32865	
611	0	32894	
612	0	32756	
613	0	32776	
614	0	32808	
615	0	32836	
616	0	32800	
617	0	32740	
618	0	32742	
619	0	32816	
620	0	32784	
621	0	32704	
622	0	32764	
623	0	32644	
624	0	32696	
625	0	32796	
626	0	32844	
627	0	32941	
628	0	32932	
629	0	32732	
630	0	32760	
631	0	32864	
632	0	32820	
633	0	32760	
634	0	32852	
635	0	32764	
636	0	32760	
637	0	32752	
638	0	32702	
639	0	32736	
640	0	32752	
641	0	32908	
642	0	32680	
643	0	32472	
644	0	32620	
645	0	32928	
646	0	32822	
647	0	32792	
648	0	32792	
649	0	32768	
650	0	32764	
651	0	32936	
652	0	32921	
653	0	32868	
654	0	32808	
655	0	32740	
656	0	32892	
657	0	32736	
658	0	32704	
659	0	32732	
660	0	32876	
661	0	32798	
662	0	32636	
663	0	32664	
664	0	32672	
665	0	32644	
666	0	32808	
667	0	32868	
668	0	32736	
669	0	32702	
670	0	32928	
671	0	32816	
672	0	32756	
673	0	32792	
674	0	32912	
675	0	32812	
676	0	32780	
677	0	32765	
678	0	32740	
679	0	32685	
680	0	32768	
681	0	32670	
682	0	32732	
683	0	32818	
684	0	32772	
685	0	32688	
686	0	32740	
687	0	32788	
688	0	32780	
689	0	32780	
690	0	32788	
691	0	32764	
692	0	32756	
693	0	32888	
694	0	32788	
695	0	32908	
696	0	32880	
697	0	32888	
698	0	32832	
699	0	32772	
700	0	32728	
701	0	32665	
702	0	32644	
703	0	32708	
704	0	32724	
705	0	32812	
706	0	32812	
707	0	32768	
708	0	32696	
709	0	32748	
710	0	32844	
711	0	32868	
712	0	32756	
713	0	32848	
714	0	32951	
715	0	32785	
716	0	32754	
717	0	32796	
718	0	32804	
719	0	32760	
720	0	32736	
721	0	32744	
722	0	32733	
723	0	32668	
724	0	32622	
725	0	32740	
726	0	32864	
727	0	32804	
728	0	32628	
729	0	32776	
730	0	32789	
731	0	32840	
732	0	32824	
733	0	32869	
734	0	32970	
735	0	32884	
736	0	32800	
737	0	32772	
738	0	32800	
739	0	32736	
740	0	32692	
741	0	32816	
742	0	32641	
743	0	32700	
744	0	32665	
745	0	32868	
746	0	32972	
747	0	32736	
748	0	32733	
749	0	32678	
750	0	32757	
751	0	32834	
752	0	32901	
753	0	32893	
754	0	32865	
755	0	32848	
756	0	32788	
757	0	32772	
758	0	32714	
759	0	32688	
760	0	32720	
761	0	32702	
762	0	32748	
763	0	32704	
764	0	32734	
765	0	32756	
766	0	32780	
767	0	32744	
768	0	32772	
769	0	32724	
770	0	32812	
771	0	33020	
772	0	32900	
773	0	32775	
774	0	32772	
775	0	32824	
776	0	32800	
777	0	32812	
778	0	32784	
779	0	32713	
780	0	32741	
781	0	32656	
782	0	32652	
783	0	32728	
784	0	32749	
785	0	32689	
786	0	32756	
787	0	32788	
788	0	32820	
789	0	32899	
790	0	32824	
791	0	32800	
792	0	32858	
793	0	32821	
794	0	32856	
795	0	32822	
796	0	32812	
797	0	32908	
798	0	32720	
799	0	32680	
800	0	32712	
801	0	32660	
802	0	32724	
803	0	32732	
804	0	32748	
805	0	32748	
806	0	32729	
807	0	32756	
808	0	32797	
809	0	32840	
810	0	32844	
811	0	32784	
812	0	32780	
813	0	32854	
814	0	32848	
815	0	32788	
816	0	32756	
817	0	32812	
818	0	32841	
819	0	32772	
820	0	32788	
821	0	32756	
822	0	32720	
823	0	32716	
824	0	32716	
825	0	32740	
826	0	32704	
827	0	32718	
828	0	32724	
829	0	32764	
830	0	32833	
831	0	32892	
832	0	32928	
833	0	32814	
834	0	32836	
835	0	32872	
836	0	32884	
837	0	32828	
838	0	32784	
839	0	32737	
840	0	32684	
841	0	32679	
842	0	32781	
843	0	32704	
844	0	32644	
845	0	32664	
846	0	32928	
847	0	32908	
848	0	32844	
849	0	32725	
850	0	32800	
851	0	32844	
852	0	32901	
853	0	32916	
854	0	32750	
855	0	32752	
856	0	32772	
857	0	32772	
858	0	32804	
859	0	32784	
860	0	32748	
861	0	32712	
862	0	32732	
863	0	32664	
864	0	32688	
865	0	32700	
866	0	32684	
867	0	32720	
868	0	32757	
869	0	32796	
870	0	33028	
871	0	32864	
872	0	32805	
873	0	32812	
874	0	32836	
875	0	32844	
876	0	32872	
877	0	32712	
878	0	32792	
879	0	32756	
880	0	32752	
881	0	32705	
882	0	32737	
883	0	32736	
884	0	32748	
885	0	32726	
886	0	32724	
887	0	32724	
888	0	32801	
889	0	32788	
890	0	32812	
891	0	32864	
892	0	32800	
893	0	32896	
894	0	32808	
895	0	32924	
896	0	32804	
897	0	32760	
898	0	32816	
899	0	32720	
900	0	32688	
901	0	32728	
902	0	32732	
903	0	32709	
904	0	32697	
905	0	32788	
906	0	32734	
907	0	32778	
908	0	32876	
909	0	32896	
910	0	32748	
911	0	32726	
912	0	32862	
913	0	32844	
914	0	32820	
915	0	32822	
916	0	32840	
917	0	32780	
918	0	32756	
919	0	32800	
920	0	32696	
921	0	32704	
922	0	32848	
923	0	32804	
924	0	32681	
925	0	32838	
926	0	32848	
927	0	32696	
928	0	32720	
929	0	32760	
930	0	32808	
931	0	32868	
932	0	32868	
933	0	32876	
934	0	32848	
935	0	32784	
936	0	32736	
937	0	32904	
938	0	32768	
939	0	32708	
940	0	32788	
941	0	32816	
942	0	32676	
943	0	32584	
944	0	32684	
945	0	32734	
946	0	32836	
947	0	32796	
948	0	32756	
949	0	32776	
950	0	32906	
951	0	32809	
952	0	32752	
953	0	32832	
954	0	32856	
955	0	32836	
956	0	32796	
957	0	32772	
958	0	32716	
959	0	32804	
960	0	32704	
961	0	32716	
962	0	32704	
963	0	32764	
964	0	32772	
965	0	32724	
966	0	32700	
967	0	32684	
968	0	32724	
969	0	32845	
970	0	32912	
971	0	32960	
972	0	32804	
973	0	32824	
974	0	32856	
975	0	32822	
976	0	32864	
977	0	32804	
978	0	32814	
979	0	32748	
980	0	32756	
981	0	32676	
982	0	32702	
983	0	32764	
984	0	32778	
985	0	32708	
986	0	32756	
987	0	32804	
988	0	32725	
989	0	32804	
990	0	32772	
991	0	32762	
992	0	32868	
993	0	32840	
994	0	32856	
995	0	32868	
996	0	32765	
997	0	32780	
998	0	32780	
999	0	32744	
1000	0	32688	
1001	0	32828	
1002	0	32908	
1003	0	32772	
1004	0	32732	
1005	0	32776	
1006	0	32692	
1007	0	32660	
1008	0	32736	
1009	0	32772	
1010	0	32860	
1011	0	32886	
1012	0	32818	
1013	0	32824	
1014	0	32880	
1015	0	32832	
1016	0	32764	
1017	0	32708	
1018	0	32753	
1019	0	32860	
1020	0	32760	
1021	0	32719	
1022	0	32668	
1023	0	32788	
1024	0	32828	
1025	0	32880	
1026	0	32624	
1027	0	32684	
1028	0	32737	
1029	0	32804	
1030	0	32792	
1031	0	32848	
1032	0	32844	
1033	0	32855	
1034	0	32764	
1035	0	32748	
1036	0	32808	
1037	0	32654	
1038	0	32869	
1039	0	32833	
1040	0	33080	
1041	0	32758	
1042	0	32536	
1043	0	32650	
1044	0	32704	
1045	0	32748	
1046	0	32820	
1047	0	32692	
1048	0	32768	
1049	0	32840	
1050	0	32845	
1051	0	32812	
1052	0	32884	
1053	0	32816	
1054	0	32832	
1055	0	32808	
1056	0	32740	
1057	0	32784	
1058	0	32868	
1059	0	32816	
1060	0	32664	
1061	0	32736	
1062	0	32700	
1063	0	32645	
1064	0	32664	
1065	0	32736	
1066	0	32768	
1067	0	32792	
1068	0	32832	
1069	0	32832	
1070	0	32804	
1071	0	32808	
1072	0	32910	
1073	0	32872	
1074	0	32924	
1075	0	32884	
1076	0	32824	
1077	0	32704	
1078	0	32756	
1079	0	32653	
1080	0	32704	
1081	0	32744	
1082	0	32660	
1083	0	32720	
1084	0	32820	
1085	0	32736	
1086	0	32856	
1087	0	32776	
1088	0	32808	
1089	0	32808	
1090	0	32857	
1091	0	32804	
1092	0	32804	
1093	0	32920	
1094	0	32812	
1095	0	32764	
1096	0	32741	
1097	0	32745	
1098	0	32696	
1099	0	32784	
1100	0	32817	
1101	0	32724	
1102	0	32684	
1103	0	32752	
1104	0	32668	
1105	0	32788	
1106	0	32792	
1107	0	32736	
1108	0	32816	
1109	0	32816	
1110	0	32732	
1111	0	32816	
1112	0	32849	
1113	0	32872	
1114	0	32909	
1115	0	32852	
1116	0	32852	
1117	0	32768	
1118	0	32753	
1119	0	32764	
1120	0	32732	
1121	0	32780	
1122	0	32728	
1123	0	32692	
1124	0	32660	
1125	0	32748	
1126	0	32724	
1127	0	32761	
1128	0	32824	
1129	0	32768	
1130	0	32840	
1131	0	32812	
1132	0	32804	
1133	0	32892	
1134	0	32848	
1135	0	32828	
1136	0	32818	
1137	0	32845	
1138	0	32774	
1139	0	32740	
1140	0	32748	
1141	0	32604	
1142	0	32660	
1143	0	32597	
1144	0	32638	
1145	0	32824	
1146	0	32820	
1147	0	32705	
1148	0	32984	
1149	0	33060	
1150	0	32892	
1151	0	32712	
1152	0	32596	
1153	0	32794	
1154	0	32848	
1155	0	32812	
1156	0	32752	
1157	0	32701	
1158	0	32728	
1159	0	32776	
1160	0	32744	
1161	0	32680	
1162	0	32740	
1163	0	32784	
1164	0	32749	
1165	0	32768	
1166	0	32764	
1167	0	32796	
1168	0	32844	
1169	0	32840	
1170	0	32837	
1171	0	32877	
1172	0	32880	
1173	0	32836	
1174	0	32816	
1175	0	32847	
1176	0	32738	
1177	0	32748	
1178	0	32777	
1179	0	32764	
1180	0	32780	
1181	0	32728	
1182	0	32692	
1183	0	32665	
1184	0	32656	
1185	0	32678	
1186	0	32736	
1187	0	32796	
1188	0	32796	
1189	0	32850	
1190	0	32852	
1191	0	32808	
1192	0	32832	
1193	0	32896	
1194	0	32840	
1195	0	32916	
1196	0	32845	
1197	0	32740	
1198	0	32748	
1199	0	32788	
1200	0	32709	
1201	0	32792	
1202	0	32704	
1203	0	32710	
1204	0	32756	
1205	0	32712	
1206	0	32712	
1207	0	32780	
1208	0	32828	
1209	0	32801	
1210	0	32780	
1211	0	32909	
1212	0	32888	
1213	0	32804	
1214	0	32856	
1215	0	32884	
1216	0	32852	
1217	0	32768	
1218	0	32720	
1219	0	32689	
1220	0	32660	
1221	0	32648	
1222	0	32732	
1223	0	32742	
1224	0	32780	
1225	0	32820	
1226	0	32737	
1227	0	32736	
1228	0	32712	
1229	0	32716	
1230	0	32780	
1231	0	32816	
1232	0	32904	
1233	0	32868	
1234	0	32824	
1235	0	32876	
1236	0	32848	
1237	0	32744	
1238	0	32736	
1239	0	32688	
1240	0	32804	
1241	0	32796	
1242	0	32758	
1243	0	32725	
1244	0	32822	
1245	0	32737	
1246	0	32672	
1247	0	32805	
1248	0	32808	
1249	0	32838	
1250	0	32844	
1251	0	32800	
1252	0	32792	
1253	0	32832	
1254	0	32892	
1255	0	32844	
1256	0	32808	
1257	0	32764	
1258	0	32836	
1259	0	32760	
1260	0	32700	
1261	0	32696	
1262	0	32724	
1263	0	32700	
1264	0	32717	
1265	0	32772	
1266	0	32842	
1267	0	32845	
1268	0	32776	
1269	0	32734	
1270	0	32740	
1271	0	32772	
1272	0	32884	
1273	0	32828	
1274	0	32996	
1275	0	32960	
1276	0	32736	
1277	0	32782	
1278	0	32752	
1279	0	32736	
1280	0	32792	
1281	0	32732	
1282	0	32692	
1283	0	32720	
1284	0	32688	
1285	0	32676	
1286	0	32704	
1287	0	32784	
1288	0	32844	
1289	0	32794	
1290	0	32816	
1291	0	32813	
1292	0	32868	
1293	0	32884	
1294	0	32792	
1295	0	32892	
1296	0	32916	
1297	0	32792	
1298	0	32836	
1299	0	32800	
1300	0	32750	
1301	0	32640	
1302	0	32604	
1303	0	32612	
1304	0	32676	
1305	0	32744	
1306	0	32720	
1307	0	32836	
1308	0	32909	
1309	0	32810	
1310	0	32775	
1311	0	32772	
1312	0	32868	
1313	0	32862	
1314	0	32924	
1315	0	32848	
1316	0	32758	
1317	0	32777	
1318	0	32716	
1319	0	32708	
1320	0	32712	
1321	0	32712	
1322	0	32777	
1323	0	32732	
1324	0	32676	
1325	0	32712	
1326	0	32664	
1327	0	32724	
1328	0	32832	
1329	0	32860	
1330	0	32888	
1331	0	32644	
1332	0	33060	
1333	0	33160	
1334	0	32860	
1335	0	32612	
1336	0	32740	
1337	0	32814	
1338	0	32768	
1339	0	32700	
1340	0	32776	
1341	0	32653	
1342	0	32744	
1343	0	32664	
1344	0	32732	
1345	0	32712	
1346	0	32674	
1347	0	32768	
1348	0	32784	
1349	0	32840	
1350	0	32761	
1351	0	32816	
1352	0	32927	
1353	0	32916	
1354	0	32892	
1355	0	32848	
1356	0	32852	
1357	0	32748	
1358	0	32709	
1359	0	32736	
1360	0	32812	
1361	0	32656	
1362	0	32712	
1363	0	32672	
1364	0	32692	
1365	0	32748	
1366	0	32808	
1367	0	32932	
1368	0	32748	
1369	0	32808	
1370	0	32812	
1371	0	32780	
1372	0	32814	
1373	0	32800	
1374	0	32848	
1375	0	32820	
1376	0	32768	
1377	0	32800	
1378	0	32769	
1379	0	32740	
1380	0	32766	
1381	0	32724	
1382	0	32616	
1383	0	32760	
1384	0	32656	
1385	0	32708	
1386	0	32832	
1387	0	32805	
1388	0	32748	
1389	0	32804	
1390	0	32801	
1391	0	32836	
1392	0	32892	
1393	0	32826	
1394	0	32924	
1395	0	32910	
1396	0	32790	
1397	0	32817	
1398	0	32775	
1399	0	32720	
1400	0	32702	
1401	0	32676	
1402	0	32608	
1403	0	32769	
1404	0	32732	
1405	0	32752	
1406	0	32836	
1407	0	32784	
1408	0	32776	
1409	0	32846	
1410	0	32800	
1411	0	32904	
1412	0	32772	
1413	0	32826	
1414	0	32948	
1415	0	32812	
1416	0	32844	
1417	0	32800	
1418	0	32804	
1419	0	32692	
1420	0	32648	
1421	0	32781	
1422	0	32781	
1423	0	32717	
1424	0	32692	
1425	0	32668	
1426	0	32756	
1427	0	32784	
1428	0	32817	
1429	0	32816	
1430	0	32788	
1431	0	32768	
1432	0	32880	
1433	0	32876	
1434	0	32760	
1435	0	32864	
1436	0	32934	
1437	0	32864	
1438	0	32720	
1439	0	32824	
1440	0	32784	
1441	0	32684	
1442	0	32432	
1443	0	32580	
1444	0	32772	
1445	0	32856	
1446	0	32828	
1447	0	32904	
1448	0	32901	
1449	0	32765	
1450	0	32800	
1451	0	32865	
1452	0	33056	
1453	0	32790	
1454	0	32709	
1455	0	32624	
1456	0	32888	
1457	0	32840	
1458	0	32716	
1459	0	32752	
1460	0	32728	
1461	0	32708	
1462	0	32692	
1463	0	32718	
1464	0	32836	
1465	0	32789	
1466	0	32732	
1467	0	32828	
1468	0	32660	
1469	0	32732	
1470	0	32833	
1471	0	32776	
1472	0	32864	
1473	0	32808	
1474	0	32888	
1475	0	32860	
1476	0	32821	
1477	0	32796	
1478	0	32756	
1479	0	32736	
1480	0	32772	
1481	0	32718	
1482	0	32684	
1483	0	32676	
1484	0	32756	
1485	0	32773	
1486	0	32720	
1487	0	32756	
1488	0	32768	
1489	0	32848	
1490	0	32844	
1491	0	32812	
1492	0	32804	
1493	0	32837	
1494	0	32868	
1495	0	32848	
1496	0	32812	
1497	0	32768	
1498	0	32792	
1499	0	32700	
1500	0	32712	
1501	0	32732	
1502	0	32704	
1503	0	32693	
1504	0	32876	
1505	0	32792	
1506	0	32708	
1507	0	32712	
1508	0	32736	
1509	0	32860	
1510	0	32780	
1511	0	32788	
1512	0	32916	
1513	0	32846	
1514	0	32844	
1515	0	32892	
1516	0	32680	
1517	0	32768	
1518	0	32820	
1519	0	32732	
1520	0	32708	
1521	0	32732	
1522	0	32648	
1523	0	32828	
1524	0	32860	
1525	0	32773	
1526	0	32792	
1527	0	32796	
1528	0	32768	
1529	0	32728	
1530	0	32764	
1531	0	32812	
1532	0	32896	
1533	0	32852	
1534	0	32892	
1535	0	32792	
1536	0	32744	
1537	0	32800	
1538	0	32736	
1539	0	32740	
1540	0	32832	
1541	0	32768	
1542	0	32733	
1543	0	32696	
1544	0	32556	
1545	0	32676	
1546	0	32784	
1547	0	32876	
1548	0	32961	
1549	0	32872	
1550	0	32720	
1551	0	32772	
1552	0	32580	
1553	0	32744	
1554	0	33024	
1555	0	32992	
1556	0	33040	
1557	0	32948	
1558	0	32628	
1559	0	32620	
1560	0	32588	
1561	0	32612	
1562	0	32896	
1563	0	32732	
1564	0	32708	
1565	0	32668	
1566	0	32674	
1567	0	32728	
1568	0	32748	
1569	0	32733	
1570	0	32832	
1571	0	32776	
1572	0	32808	
1573	0	32831	
1574	0	32904	
1575	0	32917	
1576	0	32808	
1577	0	32824	
1578	0	32740	
1579	0	32729	
1580	0	32756	
1581	0	32784	
1582	0	32776	
1583	0	32730	
1584	0	32717	
1585	0	32736	
1586	0	32756	
1587	0	32688	
1588	0	32768	
1589	0	32804	
1590	0	32836	
1591	0	32757	
1592	0	32877	
1593	0	32800	
1594	0	32856	
1595	0	32893	
1596	0	32856	
1597	0	32828	
1598	0	32740	
1599	0	32792	
1600	0	32772	
1601	0	32680	
1602	0	32660	
1603	0	32712	
1604	0	32712	
1605	0	32696	
1606	0	32768	
1607	0	32716	
1608	0	32758	
1609	0	32872	
1610	0	32884	
1611	0	32928	
1612	0	32773	
1613	0	32749	
1614	0	32816	
1615	0	32850	
1616	0	32852	
1617	0	32814	
1618	0	32741	
1619	0	32732	
1620	0	32713	
1621	0	32656	
1622	0	32712	
1623	0	32748	
1624	0	32792	
1625	0	32680	
1626	0	32733	
1627	0	32832	
1628	0	32765	
1629	0	32740	
1630	0	32776	
1631	0	32788	
1632	0	32764	
1633	0	32832	
1634	0	32972	
1635	0	32952	
1636	0	32909	
1637	0	32670	
1638	0	32652	
1639	0	32756	
1640	0	32796	
1641	0	32728	
1642	0	32716	
1643	0	32765	
1644	0	32656	
1645	0	32764	
1646	0	32804	
1647	0	32773	
1648	0	32725	
1649	0	32752	
1650	0	32724	
1651	0	32796	
1652	0	32828	
1653	0	32840	
1654	0	32868	
1655	0	32894	
1656	0	32824	
1657	0	32753	
1658	0	32741	
1659	0	32700	
1660	0	32730	
1661	0	32838	
1662	0	32813	
1663	0	32884	
1664	0	32792	
1665	0	32748	
1666	0	32720	
1667	0	32700	
1668	0	32729	
1669	0	32729	
1670	0	32824	
1671	0	32824	
1672	0	32840	
1673	0	32800	
1674	0	32775	
1675	0	32895	
1676	0	32924	
1677	0	32700	
1678	0	32820	
1679	0	32796	
1680	0	32665	
1681	0	32796	
1682	0	32796	
1683	0	32684	
1684	0	32676	
1685	0	32716	
1686	0	32716	
1687	0	32704	
1688	0	32804	
1689	0	32836	
1690	0	32776	
1691	0	32804	
1692	0	32808	
1693	0	32836	
1694	0	32837	
1695	0	32828	
1696	0	32788	
1697	0	32836	
1698	0	32748	
1699	0	32700	
1700	0	32764	
1701	0	32796	
1702	0	32700	
1703	0	32681	
1704	0	32696	
1705	0	32744	
1706	0	32664	
1707	0	32728	
1708	0	32830	
1709	0	32828	
1710	0	32805	
1711	0	32848	
1712	0	32764	
1713	0	32788	
1714	0	32812	
1715	0	32784	
1716	0	32844	
1717	0	32804	
1718	0	32776	
1719	0	32792	
1720	0	32816	
1721	0	32734	
1722	0	32704	
1723	0	32664	
1724	0	32816	
1725	0	32728	
1726	0	32676	
1727	0	32681	
1728	0	32728	
1729	0	32808	
1730	0	32752	
1731	0	32862	
1732	0	32960	
1733	0	32908	
1734	0	32828	
1735	0	32892	
1736	0	32790	
1737	0	32852	
1738	0	32796	
1739	0	32736	
1740	0	32734	
1741	0	32692	
1742	0	32720	
1743	0	32617	
1744	0	32690	
1745	0	32756	
1746	0	32725	
1747	0	32770	
1748	0	32873	
1749	0	32952	
1750	0	32844	
1751	0	32808	
1752	0	32764	
1753	0	32720	
1754	0	32820	
1755	0	32792	
1756	0	32860	
1757	0	32784	
1758	0	32716	
1759	0	32660	
1760	0	32754	
1761	0	32737	
1762	0	32696	
1763	0	32700	
1764	0	32836	
1765	0	32868	
1766	0	32832	
1767	0	32644	
1768	0	32684	
1769	0	32724	
1770	0	32889	
1771	0	32808	
1772	0	32868	
1773	0	32794	
1774	0	32846	
1775	0	32800	
1776	0	32847	
1777	0	32864	
1778	0	32780	
1779	0	32781	
1780	0	32725	
1781	0	32719	
1782	0	32728	
1783	0	32776	
1784	0	32729	
1785	0	32724	
1786	0	32713	
1787	0	32765	
1788	0	32728	
1789	0	32892	
1790	0	32982	
1791	0	32828	
1792	0	32772	
1793	0	32732	
1794	0	32816	
1795	0	32840	
1796	0	32892	
1797	0	32764	
1798	0	32708	
1799	0	32776	
1800	0	32840	
1801	0	32680	
1802	0	32704	
1803	0	32732	
1804	0	32704	
1805	0	32800	
1806	0	32736	
1807	0	32668	
1808	0	32788	
1809	0	32856	
1810	0	32820	
1811	0	32772	
1812	0	32824	
1813	0	32833	
1814	0	32796	
1815	0	32836	
1816	0	32812	
1817	0	32824	
1818	0	32828	
1819	0	32817	
1820	0	32761	
1821	0	32676	
1822	0	32676	
1823	0	32697	
1824	0	32704	
1825	0	32700	
1826	0	32780	
1827	0	32764	
1828	0	32708	
1829	0	32760	
1830	0	32852	
1831	0	32764	
1832	0	32816	
1833	0	32780	
1834	0	32912	
1835	0	32952	
1836	0	32957	
1837	0	32841	
1838	0	32748	
1839	0	32736	
1840	0	32816	
1841	0	32663	
1842	0	32664	
1843	0	32696	
1844	0	32769	
1845	0	32720	
1846	0	32682	
1847	0	32684	
1848	0	32758	
1849	0	32804	
1850	0	32804	
1851	0	32900	
1852	0	32849	
1853	0	32788	
1854	0	32780	
1855	0	32904	
1856	0	32844	
1857	0	32712	
1858	0	32740	
1859	0	32820	
1860	0	32740	
1861	0	32692	
1862	0	32692	
1863	0	32688	
1864	0	32720	
1865	0	32782	
1866	0	32800	
1867	0	32736	
1868	0	32692	
1869	0	32732	
1870	0	32860	
1871	0	32896	
1872	0	32816	
1873	0	32752	
1874	0	32820	
1875	0	32844	
1876	0	32816	
1877	0	32793	
1878	0	32857	
1879	0	32716	
1880	0	32724	
1881	0	32733	
1882	0	32685	
1883	0	32748	
1884	0	32776	
1885	0	32744	
1886	0	32744	
1887	0	32864	
1888	0	32732	
1889	0	32672	
1890	0	32764	
1891	0	32868	
1892	0	32836	
1893	0	32820	
1894	0	32812	
1895	0	32764	
1896	0	32772	
1897	0	32888	
1898	0	32888	
1899	0	32880	
1900	0	32725	
1901	0	32692	
1902	0	32644	
1903	0	32697	
1904	0	32820	
1905	0	32712	
1906	0	32672	
1907	0	32700	
1908	0	32772	
1909	0	32800	
1910	0	32872	
1911	0	32904	
1912	0	32772	
1913	0	32788	
1914	0	32800	
1915	0	32924	
1916	0	32892	
1917	0	32805	
1918	0	32748	
1919	0	32775	
1920	0	32720	
1921	0	32764	
1922	0	32732	
1923	0	32724	
1924	0	32720	
1925	0	32774	
1926	0	32744	
1927	0	32708	
1928	0	32760	
1929	0	32765	
1930	0	32812	
1931	0	32828	
1932	0	32940	
1933	0	32916	
1934	0	32790	
1935	0	32796	
1936	0	32825	
1937	0	32760	
1938	0	32752	
1939	0	32729	
1940	0	32864	
1941	0	32884	
1942	0	32732	
1943	0	32636	
1944	0	32702	
1945	0	32700	
1946	0	32652	
1947	0	32820	
1948	0	32887	
1949	0	32740	
1950	0	32740	
1951	0	32864	
1952	0	32836	
1953	0	32860	
1954	0	32872	
1955	0	32854	
1956	0	32776	
1957	0	32728	
1958	0	32696	
1959	0	32804	
1960	0	32748	
1961	0	32680	
1962	0	32824	
1963	0	32804	
1964	0	32712	
1965	0	32804	
1966	0	32737	
1967	0	32684	
1968	0	32565	
1969	0	32799	
1970	0	32812	
1971	0	32800	
1972	0	32756	
1973	0	32909	
1974	0	32869	
1975	0	32948	
1976	0	32837	
1977	0	32820	
1978	0	32780	
1979	0	32788	
1980	0	32680	
1981	0	32728	
1982	0	32700	
1983	0	32672	
1984	0	32764	
1985	0	32696	
1986	0	32790	
1987	0	32724	
1988	0	32776	
1989	0	32741	
1990	0	32792	
1991	0	32822	
1992	0	32856	
1993	0	32908	
1994	0	32847	
1995	0	32828	
1996	0	32780	
1997	0	32756	
1998	0	32892	
1999	0	32825	
2000	0	32712	
2001	0	32756	
2002	0	32712	
2003	0	32673	
2004	0	32712	
2005	0	32736	
2006	0	32764	
2007	0	32768	
2008	0	32736	
2009	0	32765	
2010	0	32800	
2011	0	32798	
2012	0	32848	
2013	0	32860	
2014	0	32846	
2015	0	32876	
2016	0	32852	
2017	0	32736	
2018	0	32760	
2019	0	32708	
2020	0	32748	
2021	0	32797	
2022	0	32756	
2023	0	32724	
2024	0	32741	
2025	0	32676	
2026	0	32716	
2027	0	32688	
2028	0	32768	
2029	0	32759	
2030	0	32796	
2031	0	32916	
2032	0	32768	
2033	0	32872	
2034	0	32832	
2035	0	32893	
2036	0	32888	
2037	0	32816	
2038	0	32744	
2039	0	32740	
2040	0	32668	
2041	0	32790	
2042	0	32836	
2043	0	32726	
2044	0	32757	
2045	0	32768	
2046	0	32743	
2047	0	32704	
2048	0	32732	
2049	0	32788	
2050	0	32808	
2051	0	32856	
2052	0	32700	
2053	0	32762	
2054	0	32828	
2055	0	32776	
2056	0	32808	
2057	0	32760	
2058	0	32980	
2059	0	32952	
2060	0	32712	
2061	0	32652	
2062	0	32604	
2063	0	32652	
2064	0	32884	
2065	0	32712	
2066	0	32648	
2067	0	32672	
2068	0	32684	
2069	0	32893	
2070	0	32840	
2071	0	32840	
2072	0	32904	
2073	0	32972	
2074	0	32880	
2075	0	32820	
2076	0	32772	
2077	0	32830	
2078	0	32804	
2079	0	32748	
2080	0	32780	
2081	0	32732	
2082	0	32672	
2083	0	32676	
2084	0	32693	
2085	0	32801	
2086	0	32748	
2087	0	32712	
2088	0	32744	
2089	0	32756	
2090	0	32840	
2091	0	32879	
2092	0	32934	
2093	0	32864	
2094	0	32688	
2095	0	32668	
2096	0	32821	
2097	0	32856	
2098	0	32844	
2099	0	32740	
2100	0	32716	
2101	0	32712	
2102	0	32772	
2103	0	32720	
2104	0	32736	
2105	0	32736	
2106	0	32732	
2107	0	32745	
2108	0	32780	
2109	0	32804	
2110	0	32842	
2111	0	32832	
2112	0	32828	
2113	0	32877	
2114	0	32828	
2115	0	32853	
2116	0	32804	
2117	0	32772	
2118	0	32760	
2119	0	32764	
2120	0	32816	
2121	0	32741	
2122	0	32737	
2123	0	32720	
2124	0	32636	
2125	0	32726	
2126	0	32760	
2127	0	32688	
2128	0	32848	
2129	0	32860	
2130	0	32840	
2131	0	32776	
2132	0	32960	
2133	0	32985	
2134	0	32836	
2135	0	32679	
2136	0	32756	
2137	0	32762	
2138	0	32744	
2139	0	32750	
2140	0	32740	
2141	0	32784	
2142	0	32752	
2143	0	32629	
2144	0	32614	
2145	0	32694	
2146	0	32720	
2147	0	32808	
2148	0	32820	
2149	0	32760	
2150	0	32816	
2151	0	32844	
2152	0	32872	
2153	0	32856	
2154	0	32816	
2155	0	32856	
2156	0	32836	
2157	0	32776	
2158	0	32832	
2159	0	32794	
2160	0	32728	
2161	0	32780	
2162	0	32764	
2163	0	32652	
2164	0	32756	
2165	0	32661	
2166	0	32756	
2167	0	32776	
2168	0	32756	
2169	0	32752	
2170	0	32736	
2171	0	32860	
2172	0	32921	
2173	0	32901	
2174	0	32840	
2175	0	32836	
2176	0	32784	
2177	0	32800	
2178	0	32788	
2179	0	32724	
2180	0	32696	
2181	0	32772	
2182	0	32684	
2183	0	32652	
2184	0	32784	
2185	0	32684	
2186	0	32696	
2187	0	32820	
2188	0	32748	
2189	0	32740	
2190	0	32837	
2191	0	32900	
2192	0	32824	
2193	0	32768	
2194	0	32816	
2195	0	32964	
2196	0	32860	
2197	0	32742	
2198	0	32880	
2199	0	32736	
2200	0	32792	
2201	0	32684	
2202	0	32760	
2203	0	32780	
2204	0	32697	
2205	0	32698	
2206	0	32737	
2207	0	32788	
2208	0	32748	
2209	0	32773	
2210	0	32748	
2211	0	32812	
2212	0	32828	
2213	0	32864	
2214	0	32844	
2215	0	32736	
2216	0	32796	
2217	0	32782	
2218	0	32764	
2219	0	32761	
2220	0	32784	
2221	0	32752	
2222	0	32764	
2223	0	32756	
2224	0	32732	
2225	0	32708	
2226	0	32777	
2227	0	32816	
2228	0	32756	
2229	0	32880	
2230	0	32776	
2231	0	32812	
2232	0	32778	
2233	0	32849	
2234	0	32820	
2235	0	32800	
2236	0	32812	
2237	0	32814	
2238	0	32764	
2239	0	32748	
2240	0	32828	
2241	0	32800	
2242	0	32669	
2243	0	32749	
2244	0	32688	
2245	0	32660	
2246	0	32680	
2247	0	32708	
2248	0	32760	
2249	0	32772	
2250	0	32836	
2251	0	32788	
2252	0	32812	
2253	0	32932	
2254	0	32868	
2255	0	32988	
2256	0	32868	
2257	0	32808	
2258	0	32777	
2259	0	32784	
2260	0	32736	
2261	0	32708	
2262	0	32728	
2263	0	32640	
2264	0	32716	
2265	0	32700	
2266	0	32720	
2267	0	32756	
2268	0	32732	
2269	0	32752	
2270	0	32766	
2271	0	32828	
2272	0	32780	
2273	0	32820	
2274	0	32824	
2275	0	32888	
2276	0	32822	
2277	0	32861	
2278	0	32788	
2279	0	32748	
2280	0	32704	
2281	0	32748	
2282	0	32712	
2283	0	32621	
2284	0	32632	
2285	0	32640	
2286	0	32698	
2287	0	32744	
2288	0	32828	
2289	0	32837	
2290	0	32740	
2291	0	32873	
2292	0	32836	
2293	0	32884	
2294	0	32905	
2295	0	32840	
2296	0	32832	
2297	0	32848	
2298	0	32812	
2299	0	32804	
2300	0	32816	
2301	0	32708	
2302	0	32750	
2303	0	32728	
2304	0	32736	
2305	0	32772	
2306	0	32824	
2307	0	32876	
2308	0	32938	
2309	0	32796	
2310	0	32844	
2311	0	32784	
2312	0	32828	
2313	0	32760	
2314	0	32856	
2315	0	32836	
2316	0	32852	
2317	0	32780	
2318	0	32725	
2319	0	32670	
2320	0	32708	
2321	0	32696	
2322	0	32696	
2323	0	32698	
2324	0	32636	
2325	0	32720	
2326	0	32796	
2327	0	32761	
2328	0	32704	
2329	0	32772	
2330	0	32732	
2331	0	32762	
2332	0	32856	
2333	0	32901	
2334	0	32852	
2335	0	32868	
2336	0	32881	
2337	0	32872	
2338	0	32796	
2339	0	32748	
2340	0	32816	
2341	0	32686	
2342	0	32720	
2343	0	32712	
2344	0	32760	
2345	0	32872	
2346	0	32612	
2347	0	32693	
2348	0	32752	
2349	0	32824	
2350	0	32796	
2351	0	32764	
2352	0	32812	
2353	0	32894	
2354	0	32828	
2355	0	32788	
2356	0	32768	
2357	0	32844	
2358	0	32736	
2359	0	32708	
2360	0	32688	
2361	0	32768	
2362	0	32676	
2363	0	32724	
2364	0	32725	
2365	0	32788	
2366	0	32708	
2367	0	32724	
2368	0	32824	
2369	0	32877	
2370	0	32844	
2371	0	32870	
2372	0	32824	
2373	0	32772	
2374	0	32766	
2375	0	32744	
2376	0	32692	
2377	0	32696	
2378	0	32660	
2379	0	32728	
2380	0	32752	
2381	0	32828	
2382	0	32721	
2383	0	32756	
2384	0	32828	
2385	0	32785	
2386	0	32905	
2387	0	33016	
2388	0	33161	
2389	0	33248	
2390	0	33048	
2391	0	32917	
2392	0	32868	
2393	0	32808	
2394	0	32832	
2395	0	32808	
2396	0	32644	
2397	0	32640	
2398	0	32548	
2399	0	32528	
2400	0	32573	
2401	0	32656	
2402	0	32684	
2403	0	32688	
2404	0	32436	
2405	0	32588	
2406	0	32700	
2407	0	32836	
2408	0	32729	
2409	0	32760	
2410	0	32806	
2411	0	32932	
2412	0	33088	
2413	0	33196	
2414	0	33061	
2415	0	32964	
2416	0	32868	
2417	0	32812	
2418	0	32812	
2419	0	32656	
2420	0	32588	
2421	0	32748	
2422	0	32704	
2423	0	32636	
2424	0	32676	
2425	0	32708	
2426	0	32632	
2427	0	32804	
2428	0	32752	
2429	0	32821	
2430	0	32740	
2431	0	32676	
2432	0	32748	
2433	0	32817	
2434	0	32724	
2435	0	32812	
2436	0	32868	
2437	0	32908	
2438	0	32832	
2439	0	32812	
2440	0	32788	
2441	0	32756	
2442	0	32721	
2443	0	32663	
2444	0	32676	
2445	0	32733	
2446	0	32704	
2447	0	32740	
2448	0	32716	
2449	0	32775	
2450	0	32884	
2451	0	32848	
2452	0	32888	
2453	0	32860	
2454	0	32834	
2455	0	32908	
2456	0	32880	
2457	0	32796	
2458	0	32736	
2459	0	32776	
2460	0	32766	
2461	0	32876	
2462	0	32765	
2463	0	32761	
2464	0	32696	
2465	0	32608	
2466	0	32692	
2467	0	32668	
2468	0	32729	
2469	0	32816	
2470	0	32804	
2471	0	32792	
2472	0	32720	
2473	0	32744	
2474	0	32720	
2475	0	32796	
2476	0	32714	
2477	0	32717	
2478	0	32780	
2479	0	32892	
2480	0	32790	
2481	0	32668	
2482	0	32704	
2483	0	32700	
2484	0	32819	
2485	0	32933	
2486	0	33073	
2487	0	33072	
2488	0	33104	
2489	0	32924	
2490	0	32840	
2491	0	32828	
2492	0	32836	
2493	0	32766	
2494	0	32736	
2495	0	32704	
2496	0	32784	
2497	0	32909	
2498	0	32802	
2499	0	32794	
2500	0	32757	
2501	0	32704	
2502	0	32620	
2503	0	32664	
2504	0	32700	
2505	0	32701	
2506	0	32700	
2507	0	32684	
2508	0	32628	
2509	0	32432	
2510	0	32596	
2511	0	32704	
2512	0	32728	
2513	0	32826	
2514	0	32812	
2515	0	32856	
2516	0	32844	
2517	0	32764	
2518	0	32842	
2519	0	32832	
2520	0	32880	
2521	0	32996	
2522	0	33016	
2523	0	32912	
2524	0	32772	
2525	0	32720	
2526	0	32944	
2527	0	32932	
2528	0	32728	
2529	0	32736	
2530	0	32689	
2531	0	32712	
2532	0	32769	
2533	0	32806	
2534	0	32623	
2535	0	32820	
2536	0	32860	
2537	0	32872	
2538	0	32896	
2539	0	32909	
2540	0	32816	
2541	0	32768	
2542	0	32744	
2543	0	32660	
2544	0	32604	
2545	0	32668	
2546	0	32716	
2547	0	32756	
2548	0	32752	
2549	0	32744	
2550	0	32752	
2551	0	32700	
2552	0	32713	
2553	0	32716	
2554	0	32780	
2555	0	32775	
2556	0	32792	
2557	0	32772	
2558	0	32780	
2559	0	32772	
2560	0	32752	
2561	0	32712	
2562	0	32756	
2563	0	32716	
2564	0	32676	
2565	0	32628	
2566	0	32724	
2567	0	32760	
2568	0	32854	
2569	0	32812	
2570	0	32901	
2571	0	32792	
2572	0	32944	
2573	0	32968	
2574	0	32976	
2575	0	32916	
2576	0	32912	
2577	0	32876	
2578	0	32716	
2579	0	32652	
2580	0	32686	
2581	0	32716	
2582	0	32728	
2583	0	32774	
2584	0	32688	
2585	0	32716	
2586	0	32772	
2587	0	32780	
2588	0	32788	
2589	0	32845	
2590	0	32852	
2591	0	32772	
2592	0	32628	
2593	0	32632	
2594	0	32668	
2595	0	32696	
2596	0	32736	
2597	0	32748	
2598	0	32832	
2599	0	32872	
2600	0	32756	
2601	0	32796	
2602	0	32896	
2603	0	32868	
2604	0	32936	
2605	0	33028	
2606	0	32828	
2607	0	32700	
2608	0	32788	
2609	0	32868	
2610	0	32768	
2611	0	32645	
2612	0	32670	
2613	0	32588	
2614	0	32680	
2615	0	32712	
2616	0	32808	
2617	0	32736	
2618	0	32912	
2619	0	32856	
2620	0	32908	
2621	0	32916	
2622	0	32896	
2623	0	32924	
2624	0	32897	
2625	0	32968	
2626	0	32836	
2627	0	32684	
2628	0	32616	
2629	0	32572	
2630	0	32636	
2631	0	32668	
2632	0	32708	
2633	0	32728	
2634	0	32814	
2635	0	32802	
2636	0	32780	
2637	0	32785	
2638	0	32775	
2639	0	32704	
2640	0	32880	
2641	0	32764	
2642	0	32820	
2643	0	32824	
2644	0	32825	
2645	0	32780	
2646	0	32696	
2647	0	32589	
2648	0	32702	
2649	0	32740	
2650	0	32788	
2651	0	32826	
2652	0	32888	
2653	0	32820	
2654	0	32832	
2655	0	32816	
2656	0	32812	
2657	0	32825	
2658	0	32744	
2659	0	32864	
2660	0	32756	
2661	0	32740	
2662	0	32714	
2663	0	32796	
2664	0	32760	
2665	0	32732	
2666	0	32612	
2667	0	32604	
2668	0	32637	
2669	0	32780	
2670	0	32808	
2671	0	32844	
2672	0	32808	
2673	0	32852	
2674	0	32836	
2675	0	32944	
2676	0	32940	
2677	0	32913	
2678	0	32744	
2679	0	32725	
2680	0	32792	
2681	0	32896	
2682	0	32896	
2683	0	32796	
2684	0	32788	
2685	0	32861	
2686	0	32845	
2687	0	32900	
2688	0	32876	
2689	0	32872	
2690	0	32796	
2691	0	32832	
2692	0	32790	
2693	0	32800	
2694	0	32788	
2695	0	32696	
2696	0	32768	
2697	0	32832	
2698	0	32784	
2699	0	32776	
2700	0	32824	
2701	0	32660	
2702	0	32605	
2703	0	32568	
2704	0	32592	
2705	0	32549	
2706	0	32636	
2707	0	32684	
2708	0	32757	
2709	0	32844	
2710	0	32804	
2711	0	32884	
2712	0	32862	
2713	0	32980	
2714	0	32976	
2715	0	33004	
2716	0	32884	
2717	0	32816	
2718	0	32740	
2719	0	32692	
2720	0	32821	
2721	0	32812	
2722	0	32780	
2723	0	32772	
2724	0	32662	
2725	0	32632	
2726	0	32652	
2727	0	32680	
2728	0	32720	
2729	0	32736	
2730	0	32744	
2731	0	32828	
2732	0	32854	
2733	0	32840	
2734	0	32800	
2735	0	32804	
2736	0	32764	
2737	0	32864	
2738	0	32792	
2739	0	32792	
2740	0	32836	
2741	0	32784	
2742	0	32700	
2743	0	32716	
2744	0	32758	
2745	0	32724	
2746	0	32672	
2747	0	32716	
2748	0	32720	
2749	0	32764	
2750	0	32836	
2751	0	32884	
2752	0	32852	
2753	0	32752	
2754	0	32848	
2755	0	32860	
2756	0	32832	
2757	0	32824	
2758	0	32844	
2759	0	32948	
2760	0	32869	
2761	0	32796	
2762	0	32756	
2763	0	32836	
2764	0	32820	
2765	0	32672	
2766	0	32652	
2767	0	32688	
2768	0	32732	
2769	0	32776	
2770	0	32665	
2771	0	32816	
2772	0	32910	
2773	0	32878	
2774	0	32836	
2775	0	32940	
2776	0	32832	
2777	0	32878	
2778	0	32774	
2779	0	32756	
2780	0	32762	
2781	0	32804	
2782	0	32804	
2783	0	32676	
2784	0	32692	
2785	0	32684	
2786	0	32717	
2787	0	32756	
2788	0	32780	
2789	0	32844	
2790	0	32812	
2791	0	32696	
2792	0	32713	
2793	0	32656	
2794	0	32740	
2795	0	32858	
2796	0	32796	
2797	0	32796	
2798	0	32868	
2799	0	32856	
2800	0	32897	
2801	0	32897	
2802	0	32872	
2803	0	32832	
2804	0	32790	
2805	0	32728	
2806	0	32764	
2807	0	32794	
2808	0	32732	
2809	0	32696	
2810	0	32692	
2811	0	32714	
2812	0	32784	
2813	0	32808	
2814	0	32860	
2815	0	32878	
2816	0	32832	
2817	0	32892	
2818	0	32836	
2819	0	32824	
2820	0	32820	
2821	0	32828	
2822	0	32732	
2823	0	32660	
2824	0	32644	
2825	0	32716	
2826	0	32720	
2827	0	32745	
2828	0	32732	
2829	0	32732	
2830	0	32672	
2831	0	32838	
2832	0	32800	
2833	0	32776	
2834	0	32816	
2835	0	32788	
2836	0	32808	
2837	0	32804	
2838	0	32830	
2839	0	32776	
2840	0	32728	
2841	0	32804	
2842	0	32708	
2843	0	32770	
2844	0	32694	
2845	0	32696	
2846	0	32812	
2847	0	32724	
2848	0	32737	
2849	0	32796	
2850	0	32858	
2851	0	32968	
2852	0	32900	
2853	0	32840	
2854	0	32798	
2855	0	32860	
2856	0	32924	
2857	0	32977	
2858	0	32772	
2859	0	32580	
2860	0	32564	
2861	0	32620	
2862	0	32612	
2863	0	32624	
2864	0	32718	
2865	0	32756	
2866	0	32776	
2867	0	32876	
2868	0	32957	
2869	0	32944	
2870	0	32984	
2871	0	32877	
2872	0	32812	
2873	0	32786	
2874	0	32852	
2875	0	32864	
2876	0	32837	
2877	0	32812	
2878	0	32780	
2879	0	32668	
2880	0	32656	
2881	0	32676	
2882	0	32676	
2883	0	32596	
2884	0	32764	
2885	0	32812	
2886	0	32740	
2887	0	32788	
2888	0	32684	
2889	0	32712	
2890	0	32786	
2891	0	32828	
2892	0	32780	
2893	0	32881	
2894	0	32813	
2895	0	32838	
2896	0	32844	
2897	0	32804	
2898	0	32741	
2899	0	32804	
2900	0	32772	
2901	0	32776	
2902	0	32741	
2903	0	32756	
2904	0	32704	
2905	0	32758	
2906	0	32820	
2907	0	32760	
2908	0	32720	
2909	0	32836	
2910	0	32770	
2911	0	32717	
2912	0	32800	
2913	0	32857	
2914	0	32912	
2915	0	32904	
2916	0	32868	
2917	0	32848	
2918	0	32788	
2919	0	32736	
2920	0	32688	
2921	0	32760	
2922	0	32760	
2923	0	32752	
2924	0	32748	
2925	0	32709	
2926	0	32762	
2927	0	32748	
2928	0	32780	
2929	0	32765	
2930	0	32812	
2931	0	32832	
2932	0	32780	
2933	0	32729	
2934	0	32837	
2935	0	32876	
2936	0	32796	
2937	0	32809	
2938	0	32756	
2939	0	32832	
2940	0	32812	
2941	0	32744	
2942	0	32808	
2943	0	32768	
2944	0	32770	
2945	0	32749	
2946	0	32808	
2947	0	32824	
2948	0	32756	
2949	0	32833	
2950	0	32752	
2951	0	32756	
2952	0	32775	
2953	0	32780	
2954	0	32812	
2955	0	32796	
2956	0	32773	
2957	0	32836	
2958	0	32740	
2959	0	32717	
2960	0	32784	
2961	0	32817	
2962	0	32800	
2963	0	32770	
2964	0	32766	
2965	0	32732	
2966	0	32804	
2967	0	32736	
2968	0	32796	
2969	0	32784	
2970	0	32877	
2971	0	32825	
2972	0	32764	
2973	0	32784	
2974	0	32828	
2975	0	32888	
2976	0	32940	
2977	0	32784	
2978	0	32764	
2979	0	32760	
2980	0	32808	
2981	0	32716	
2982	0	32700	
2983	0	32736	
2984	0	32740	
2985	0	32732	
2986	0	32692	
2987	0	32745	
2988	0	32772	
2989	0	32752	
2990	0	32780	
2991	0	32776	
2992	0	32828	
2993	0	32854	
2994	0	32840	
2995	0	32820	
2996	0	32800	
2997	0	32808	
2998	0	32844	
2999	0	32812	
3000	0	32745	
3001	0	32685	
3002	0	32788	
3003	0	32752	
3004	0	32792	
3005	0	32720	
3006	0	32736	
3007	0	32708	
3008	0	32664	
3009	0	32744	
3010	0	32776	
3011	0	32820	
3012	0	32804	
3013	0	32824	
3014	0	32828	
3015	0	32837	
3016	0	32836	
3017	0	32853	
3018	0	32800	
3019	0	32800	
3020	0	32756	
3021	0	32780	
3022	0	32812	
3023	0	32804	
3024	0	32776	
3025	0	32720	
3026	0	32778	
3027	0	32712	
3028	0	32814	
3029	0	32770	
3030	0	32808	
3031	0	32848	
3032	0	32860	
3033	0	32848	
3034	0	32804	
3035	0	32784	
3036	0	32808	
3037	0	32708	
3038	0	32696	
3039	0	32686	
3040	0	32724	
3041	0	32698	
3042	0	32734	
3043	0	32688	
3044	0	32712	
3045	0	32724	
3046	0	32824	
3047	0	32792	
3048	0	32809	
3049	0	32844	
3050	0	32881	
3051	0	32908	
3052	0	32860	
3053	0	32889	
3054	0	32848	
3055	0	32902	
3056	0	32840	
3057	0	32876	
3058	0	32741	
3059	0	32620	
3060	0	32672	
3061	0	32780	
3062	0	32776	
3063	0	32680	
3064	0	32644	
3065	0	32720	
3066	0	32648	
3067	0	32676	
3068	0	32740	
3069	0	32728	
3070	0	32776	
3071	0	32792	
3072	0	32840	
3073	0	32932	
3074	0	32948	
3075	0	32896	
3076	0	32840	
3077	0	32784	
3078	0	32748	
3079	0	32797	
3080	0	32732	
3081	0	32720	
3082	0	32716	
3083	0	32732	
3084	0	32680	
3085	0	32684	
3086	0	32684	
3087	0	32708	
3088	0	32801	
3089	0	32844	
3090	0	32848	
3091	0	32892	
3092	0	32750	
3093	0	32824	
3094	0	32804	
3095	0	32846	
3096	0	32900	
3097	0	32804	
3098	0	32760	
3099	0	32832	
3100	0	32748	
3101	0	32736	
3102	0	32824	
3103	0	32776	
3104	0	32760	
3105	0	32734	
3106	0	32728	
3107	0	32660	
3108	0	32773	
3109	0	32772	
3110	0	32782	
3111	0	32808	
3112	0	32740	
3113	0	32756	
3114	0	32816	
3115	0	32777	
3116	0	32824	
3117	0	32844	
3118	0	32828	
3119	0	32772	
3120	0	32796	
3121	0	32740	
3122	0	32766	
3123	0	32720	
3124	0	32740	
3125	0	32756	
3126	0	32768	
3127	0	32708	
3128	0	32844	
3129	0	32828	
3130	0	32789	
3131	0	32812	
3132	0	32820	
3133	0	32790	
3134	0	32792	
3135	0	32840	
3136	0	32888	
3137	0	32856	
3138	0	32876	
3139	0	32788	
3140	0	32760	
3141	0	32711	
3142	0	32761	
3143	0	32740	
3144	0	32712	
3145	0	32772	
3146	0	32696	
3147	0	32698	
3148	0	32708	
3149	0	32734	
3150	0	32776	
3151	0	32832	
3152	0	32834	
3153	0	32818	
3154	0	32880	
3155	0	32976	
3156	0	32896	
3157	0	32864	
3158	0	32798	
3159	0	32764	
3160	0	32716	
3161	0	32700	
3162	0	32728	
3163	0	32653	
3164	0	32648	
3165	0	32734	
3166	0	32672	
3167	0	32769	
3168	0	32668	
3169	0	32768	
3170	0	32821	
3171	0	32768	
3172	0	32772	
3173	0	32900	
3174	0	32949	
3175	0	32884	
3176	0	32972	
3177	0	32848	
3178	0	32832	
3179	0	32736	
3180	0	32832	
3181	0	32796	
3182	0	32768	
3183	0	32612	
3184	0	32616	
3185	0	32652	
3186	0	32664	
3187	0	32744	
3188	0	32816	
3189	0	32838	
3190	0	32888	
3191	0	32900	
3192	0	32900	
3193	0	32881	
3194	0	32820	
3195	0	32821	
3196	0	32896	
3197	0	32832	
3198	0	32802	
3199	0	32824	
3200	0	32716	
3201	0	32700	
3202	0	32708	
3203	0	32696	
3204	0	32656	
3205	0	32737	
3206	0	32764	
3207	0	32812	
3208	0	32768	
3209	0	32804	
3210	0	32804	
3211	0	32710	
3212	0	32682	
3213	0	32796	
3214	0	32756	
3215	0	32773	
3216	0	32856	
3217	0	32780	
3218	0	32872	
3219	0	32816	
3220	0	32836	
3221	0	32804	
3222	0	32812	
3223	0	32804	
3224	0	32737	
3225	0	32729	
3226	0	32740	
3227	0	32648	
3228	0	32736	
3229	0	32756	
3230	0	32764	
3231	0	32756	
3232	0	32724	
3233	0	32800	
3234	0	32829	
3235	0	32864	
3236	0	32864	
3237	0	32800	
3238	0	32820	
3239	0	32828	
3240	0	32807	
3241	0	32792	
3242	0	32828	
3243	0	32696	
3244	0	32704	
3245	0	32784	
3246	0	32736	
3247	0	32740	
3248	0	32748	
3249	0	32746	
3250	0	32748	
3251	0	32816	
3252	0	32760	
3253	0	32809	
3254	0	32860	
3255	0	32868	
3256	0	32804	
3257	0	32897	
3258	0	32830	
3259	0	32804	
3260	0	32781	
3261	0	32764	
3262	0	32764	
3263	0	32678	
3264	0	32748	
3265	0	32748	
3266	0	32720	
3267	0	32664	
3268	0	32753	
3269	0	32796	
3270	0	32796	
3271	0	32772	
3272	0	32756	
3273	0	32809	
3274	0	32844	
3275	0	32864	
3276	0	32852	
3277	0	32852	
3278	0	32860	
3279	0	32756	
3280	0	32736	
3281	0	32632	
3282	0	32625	
3283	0	32652	
3284	0	32708	
3285	0	32716	
3286	0	32746	
3287	0	32792	
3288	0	32796	
3289	0	32812	
3290	0	32844	
3291	0	32921	
3292	0	32976	
3293	0	32972	
3294	0	32952	
3295	0	32892	
3296	0	32820	
3297	0	32804	
3298	0	32764	
3299	0	32748	
3300	0	32652	
3301	0	32744	
3302	0	32744	
3303	0	32724	
3304	0	32704	
3305	0	32785	
3306	0	32742	
3307	0	32744	
3308	0	32720	
3309	0	32778	
3310	0	32736	
3311	0	32852	
3312	0	32814	
3313	0	32836	
3314	0	32788	
3315	0	32872	
3316	0	32753	
3317	0	32782	
3318	0	32788	
3319	0	32708	
3320	0	32760	
3321	0	32728	
3322	0	32692	
3323	0	32736	
3324	0	32712	
3325	0	32724	
3326	0	32704	
3327	0	32696	
3328	0	32756	
3329	0	32792	
3330	0	32788	
3331	0	32808	
3332	0	32768	
3333	0	32764	
3334	0	32782	
3335	0	32880	
3336	0	32884	
3337	0	32856	
3338	0	32882	
3339	0	32932	
3340	0	32816	
3341	0	32740	
3342	0	32804	
3343	0	32784	
3344	0	32712	
3345	0	32708	
3346	0	32694	
3347	0	32728	
3348	0	32716	
3349	0	32740	
3350	0	32696	
3351	0	32856	
3352	0	32765	
3353	0	32756	
3354	0	32756	
3355	0	32873	
3356	0	32852	
3357	0	32856	
3358	0	32788	
3359	0	32780	
3360	0	32776	
3361	0	32756	
3362	0	32728	
3363	0	32820	
3364	0	32681	
3365	0	32668	
3366	0	32648	
3367	0	32748	
3368	0	32692	
3369	0	32692	
3370	0	32744	
3371	0	32815	
3372	0	32860	
3373	0	32886	
3374	0	32840	
3375	0	32885	
3376	0	32980	
3377	0	33024	
3378	0	33025	
3379	0	32991	
3380	0	32796	
3381	0	32708	
3382	0	32672	
3383	0	32700	
3384	0	32660	
3385	0	32700	
3386	0	32708	
3387	0	32664	
3388	0	32630	
3389	0	32604	
3390	0	32628	
3391	0	32760	
3392	0	32781	
3393	0	32844	
3394	0	32864	
3395	0	32928	
3396	0	32936	
3397	0	32900	
3398	0	32932	
3399	0	32936	
3400	0	32872	
3401	0	32852	
3402	0	32860	
3403	0	32768	
3404	0	32628	
3405	0	32624	
3406	0	32704	
3407	0	32648	
3408	0	32705	
3409	0	32704	
3410	0	32698	
3411	0	32772	
3412	0	32752	
3413	0	32780	
3414	0	32832	
3415	0	32792	
3416	0	32844	
3417	0	32838	
3418	0	32840	
3419	0	32820	
3420	0	32724	
3421	0	32708	
3422	0	32844	
3423	0	32728	
3424	0	32744	
3425	0	32708	
3426	0	32760	
3427	0	32732	
3428	0	32744	
3429	0	32700	
3430	0	32788	
3431	0	32800	
3432	0	32836	
3433	0	32796	
3434	0	32816	
3435	0	32837	
3436	0	32893	
3437	0	32824	
3438	0	32812	
3439	0	32724	
3440	0	32740	
3441	0	32687	
3442	0	32724	
3443	0	32716	
3444	0	32784	
3445	0	32756	
3446	0	32744	
3447	0	32792	
3448	0	32772	
3449	0	32816	
3450	0	32856	
3451	0	32920	
3452	0	32900	
3453	0	32820	
3454	0	32884	
3455	0	32879	
3456	0	32880	
3457	0	32840	
3458	0	32696	
3459	0	32708	
3460	0	32740	
3461	0	32764	
3462	0	32672	
3463	0	32716	
3464	0	32742	
3465	0	32668	
3466	0	32632	
3467	0	32696	
3468	0	32709	
3469	0	32784	
3470	0	32808	
3471	0	32816	
3472	0	32756	
3473	0	32816	
3474	0	32812	
3475	0	32928	
3476	0	32852	
3477	0	32832	
3478	0	32912	
3479	0	32904	
3480	0	32808	
3481	0	32704	
3482	0	32704	
3483	0	32758	
3484	0	32686	
3485	0	32693	
3486	0	32584	
3487	0	32672	
3488	0	32748	
3489	0	32800	
3490	0	32790	
3491	0	32829	
3492	0	32873	
3493	0	32852	
3494	0	32924	
3495	0	32864	
3496	0	32924	
3497	0	32936	
3498	0	32924	
3499	0	32928	
3500	0	32824	
3501	0	32832	
3502	0	32680	
3503	0	32677	
3504	0	32640	
3505	0	32656	
3506	0	32668	
3507	0	32648	
3508	0	32680	
3509	0	32748	
3510	0	32720	
3511	0	32744	
3512	0	32734	
3513	0	32804	
3514	0	32808	
3515	0	32880	
3516	0	32846	
3517	0	32840	
3518	0	32860	
3519	0	32828	
3520	0	32760	
3521	0	32748	
3522	0	32744	
3523	0	32784	
3524	0	32788	
3525	0	32700	
3526	0	32724	
3527	0	32792	
3528	0	32728	
3529	0	32640	
3530	0	32746	
3531	0	32828	
3532	0	32780	
3533	0	32852	
3534	0	32828	
3535	0	32820	
3536	0	32848	
3537	0	32857	
3538	0	32828	
3539	0	32838	
3540	0	32852	
3541	0	32756	
3542	0	32740	
3543	0	32713	
3544	0	32677	
3545	0	32740	
3546	0	32777	
3547	0	32708	
3548	0	32744	
3549	0	32806	
3550	0	32688	
3551	0	32774	
3552	0	32796	
3553	0	32852	
3554	0	32800	
3555	0	32872	
3556	0	32812	
3557	0	32856	
3558	0	32836	
3559	0	32848	
3560	0	32768	
3561	0	32816	
3562	0	32808	
3563	0	32720	
3564	0	32724	
3565	0	32716	
3566	0	32788	
3567	0	32752	
3568	0	32708	
3569	0	32732	
3570	0	32700	
3571	0	32804	
3572	0	32813	
3573	0	32824	
3574	0	32832	
3575	0	32832	
3576	0	32805	
3577	0	32804	
3578	0	32857	
3579	0	32820	
3580	0	32778	
3581	0	32688	
3582	0	32804	
3583	0	32724	
3584	0	32772	
3585	0	32757	
3586	0	32762	
3587	0	32774	
3588	0	32680	
3589	0	32724	
3590	0	32756	
3591	0	32772	
3592	0	32768	
3593	0	32798	
3594	0	32856	
3595	0	32834	
3596	0	32837	
3597	0	32953	
3598	0	32792	
3599	0	32788	
3600	0	32756	
3601	0	32788	
3602	0	32757	
3603	0	32768	
3604	0	32704	
3605	0	32804	
3606	0	32744	
3607	0	32780	
3608	0	32748	
3609	0	32704	
3610	0	32784	
3611	0	32788	
3612	0	32860	
3613	0	32808	
3614	0	32757	
3615	0	32756	
3616	0	32900	
3617	0	32869	
3618	0	32764	
3619	0	32808	
3620	0	32764	
3621	0	32768	
3622	0	32852	
3623	0	32736	
3624	0	32696	
3625	0	32698	
3626	0	32713	
3627	0	32736	
3628	0	32740	
3629	0	32812	
3630	0	32752	
3631	0	32768	
3632	0	32816	
3633	0	32714	
3634	0	32836	
3635	0	32816	
3636	0	32756	
3637	0	32824	
3638	0	32880	
3639	0	32884	
3640	0	32840	
3641	0	32700	
3642	0	32760	
3643	0	32732	
3644	0	32724	
3645	0	32700	
3646	0	32737	
3647	0	32668	
3648	0	32724	
3649	0	32760	
3650	0	32804	
3651	0	32760	
3652	0	32788	
3653	0	32852	
3654	0	32868	
3655	0	32760	
3656	0	32876	
3657	0	32868	
3658	0	32856	
3659	0	32868	
3660	0	32756	
3661	0	32740	
3662	0	32756	
3663	0	32712	
3664	0	32764	
3665	0	32768	
3666	0	32708	
3667	0	32668	
3668	0	32752	
3669	0	32746	
3670	0	32734	
3671	0	32776	
3672	0	32836	
3673	0	32808	
3674	0	32816	
3675	0	32772	
3676	0	32864	
3677	0	32824	
3678	0	32848	
3679	0	32758	
3680	0	32784	
3681	0	32788	
3682	0	32744	
3683	0	32768	
3684	0	32704	
3685	0	32756	
3686	0	32646	
3687	0	32733	
3688	0	32704	
3689	0	32808	
3690	0	32744	
3691	0	32770	
3692	0	32880	
3693	0	32860	
3694	0	32860	
3695	0	32861	
3696	0	32864	
3697	0	32836	
3698	0	32838	
3699	0	32748	
3700	0	32804	
3701	0	32828	
3702	0	32768	
3703	0	32712	
3704	0	32704	
3705	0	32712	
3706	0	32756	
3707	0	32744	
3708	0	32680	
3709	0	32828	
3710	0	32744	
3711	0	32868	
3712	0	32813	
3713	0	32872	
3714	0	32808	
3715	0	32868	
3716	0	32816	
3717	0	32820	
3718	0	32828	
3719	0	32864	
3720	0	32804	
3721	0	32776	
3722	0	32712	
3723	0	32696	
3724	0	32660	
3725	0	32728	
3726	0	32696	
3727	0	32740	
3728	0	32744	
3729	0	32708	
3730	0	32784	
3731	0	32793	
3732	0	32802	
3733	0	32812	
3734	0	32806	
3735	0	32868	
3736	0	32868	
3737	0	32868	
3738	0	32836	
3739	0	32796	
3740	0	32792	
3741	0	32788	
3742	0	32720	
3743	0	32766	
3744	0	32744	
3745	0	32676	
3746	0	32728	
3747	0	32776	
3748	0	32698	
3749	0	32660	
3750	0	32844	
3751	0	32829	
3752	0	32836	
3753	0	32736	
3754	0	32757	
3755	0	32848	
3756	0	32872	
3757	0	32812	
3758	0	32884	
3759	0	32829	
3760	0	32796	
3761	0	32776	
3762	0	32748	
3763	0	32676	
3764	0	32740	
3765	0	32756	
3766	0	32740	
3767	0	32712	
3768	0	32665	
3769	0	32736	
3770	0	32752	
3771	0	32748	
3772	0	32756	
3773	0	32774	
3774	0	32868	
3775	0	32832	
3776	0	32862	
3777	0	32888	
3778	0	32780	
3779	0	32836	
3780	0	32808	
3781	0	32757	
3782	0	32800	
3783	0	32764	
3784	0	32724	
3785	0	32768	
3786	0	32688	
3787	0	32688	
3788	0	32716	
3789	0	32696	
3790	0	32752	
3791	0	32772	
3792	0	32748	
3793	0	32800	
3794	0	32868	
3795	0	32844	
3796	0	32865	
3797	0	32856	
3798	0	32816	
3799	0	32804	
3800	0	32836	
3801	0	32744	
3802	0	32757	
3803	0	32720	
3804	0	32748	
3805	0	32700	
3806	0	32800	
3807	0	32748	
3808	0	32800	
3809	0	32804	
3810	0	32732	
3811	0	32780	
3812	0	32852	
3813	0	32782	
3814	0	32812	
3815	0	32856	
3816	0	32824	
3817	0	32836	
3818	0	32844	
3819	0	32800	
3820	0	32792	
3821	0	32800	
3822	0	32740	
3823	0	32660	
3824	0	32733	
3825	0	32757	
3826	0	32680	
3827	0	32720	
3828	0	32776	
3829	0	32796	
3830	0	32744	
3831	0	32788	
3832	0	32804	
3833	0	32844	
3834	0	32844	
3835	0	32960	
3836	0	32850	
3837	0	32844	
3838	0	32832	
3839	0	32812	
3840	0	32740	
3841	0	32772	
3842	0	32736	
3843	0	32736	
3844	0	32644	
3845	0	32716	
3846	0	32774	
3847	0	32753	
3848	0	32732	
3849	0	32760	
3850	0	32736	
3851	0	32744	
3852	0	32732	
3853	0	32788	
3854	0	32872	
3855	0	32860	
3856	0	32832	
3857	0	32825	
3858	0	32784	
3859	0	32856	
3860	0	32713	
3861	0	32790	
3862	0	32760	
3863	0	32749	
3864	0	32764	
3865	0	32660	
3866	0	32704	
3867	0	32708	
3868	0	32748	
3869	0	32800	
3870	0	32812	
3871	0	32752	
3872	0	32824	
3873	0	32740	
3874	0	32744	
3875	0	32812	
3876	0	32856	
3877	0	32855	
3878	0	32812	
3879	0	32845	
3880	0	32820	
3881	0	32744	
3882	0	32712	
3883	0	32740	
3884	0	32678	
3885	0	32792	
3886	0	32820	
3887	0	32696	
3888	0	32686	
3889	0	32701	
3890	0	32783	
3891	0	32780	
3892	0	32760	
3893	0	32860	
3894	0	32889	
3895	0	32840	
3896	0	32881	
3897	0	32848	
3898	0	32836	
3899	0	32820	
3900	0	32804	
3901	0	32708	
3902	0	32676	
3903	0	32661	
3904	0	32732	
3905	0	32725	
3906	0	32688	
3907	0	32686	
3908	0	32764	
3909	0	32729	
3910	0	32744	
3911	0	32808	
3912	0	32780	
3913	0	32821	
3914	0	32797	
3915	0	32892	
3916	0	32793	
3917	0	32908	
3918	0	32808	
3919	0	32804	
3920	0	32752	
3921	0	32780	
3922	0	32796	
3923	0	32750	
3924	0	32768	
3925	0	32744	
3926	0	32744	
3927	0	32700	
3928	0	32740	
3929	0	32724	
3930	0	32702	
3931	0	32712	
3932	0	32762	
3933	0	32744	
3934	0	32872	
3935	0	32844	
3936	0	32840	
3937	0	32878	
3938	0	32845	
3939	0	32854	
3940	0	32800	
3941	0	32748	
3942	0	32732	
3943	0	32776	
3944	0	32716	
3945	0	32660	
3946	0	32680	
3947	0	32776	
3948	0	32700	
3949	0	32718	
3950	0	32757	
3951	0	32788	
3952	0	32748	
3953	0	32804	
3954	0	32809	
3955	0	32792	
3956	0	32836	
3957	0	32816	
3958	0	32812	
3959	0	32845	
3960	0	32792	
3961	0	32770	
3962	0	32764	
3963	0	32756	
3964	0	32769	
3965	0	32712	
3966	0	32734	
3967	0	32768	
3968	0	32680	
3969	0	32790	
3970	0	32893	
3971	0	32822	
3972	0	32772	
3973	0	32816	
3974	0	32821	
3975	0	32840	
3976	0	32820	
3977	0	32816	
3978	0	32852	
3979	0	32792	
3980	0	32784	
3981	0	32772	
3982	0	32692	
3983	0	32776	
3984	0	32828	
3985	0	32800	
3986	0	32652	
3987	0	32676	
3988	0	32724	
3989	0	32744	
3990	0	32768	
3991	0	32788	
3992	0	32804	
3993	0	32784	
3994	0	32852	
3995	0	32832	
3996	0	32796	
3997	0	32839	
3998	0	32805	
3999	0	32788	
4000	0	32796	
4001	0	32832	
4002	0	32788	
4003	0	32805	
4004	0	32756	
4005	0	32724	
4006	0	32700	
4007	0	32692	
4008	0	32748	
4009	0	32749	
4010	0	32808	
4011	0	32776	
4012	0	32788	
4013	0	32848	
4014	0	32784	
4015	0	32788	
4016	0	32792	
4017	0	32852	
4018	0	32800	
4019	0	32812	
4020	0	32868	
4021	0	32812	
4022	0	32744	
4023	0	32768	
4024	0	32760	
4025	0	32744	
4026	0	32824	
4027	0	32752	
4028	0	32760	
4029	0	32804	
4030	0	32728	
4031	0	32758	
4032	0	32824	
4033	0	32784	
4034	0	32896	
4035	0	32857	
4036	0	32812	
4037	0	32884	
4038	0	32829	
4039	0	32780	
4040	0	32796	
4041	0	32772	
4042	0	32796	
4043	0	32768	
4044	0	32736	
4045	0	32708	
4046	0	32704	
4047	0	32712	
4048	0	32708	
4049	0	32717	
4050	0	32820	
4051	0	32744	
4052	0	32736	
4053	0	32804	
4054	0	32820	
4055	0	32868	
4056	0	32832	
4057	0	32828	
4058	0	32792	
4059	0	32896	
4060	0	32876	
4061	0	32764	
4062	0	32756	
4063	0	32765	
4064	0	32712	
4065	0	32712	
4066	0	32676	
4067	0	32740	
4068	0	32704	
4069	0	32704	
4070	0	32776	
4071	0	32820	
4072	0	32828	
4073	0	32814	
4074	0	32852	
4075	0	32862	
4076	0	32852	
4077	0	32833	
4078	0	32832	
4079	0	32808	
4080	0	32792	
4081	0	32764	
4082	0	32766	
4083	0	32804	
4084	0	32752	
4085	0	32784	
4086	0	32760	
4087	0	32692	
4088	0	32756	
4089	0	32753	
4090	0	32836	
4091	0	32832	
4092	0	32756	
4093	0	32784	
4094	0	32824	
4095	0	32880	
4096	0	32853	
4097	0	32828	
4098	0	32800	
4099	0	32828	
4100	0	32844	
4101	0	32733	
4102	0	32704	
4103	0	32804	
4104	0	32821	
4105	0	32764	
4106	0	32692	
4107	0	32700	
4108	0	32732	
4109	0	32741	
4110	0	32768	
4111	0	32756	
4112	0	32760	
4113	0	32748	
4114	0	32772	
4115	0	32860	
4116	0	32968	
4117	0	32876	
4118	0	32804	
4119	0	32824	
4120	0	32832	
4121	0	32832	
4122	0	32800	
4123	0	32733	
4124	0	32668	
4125	0	32732	
4126	0	32736	
4127	0	32768	
4128	0	32745	
4129	0	32744	
4130	0	32752	
4131	0	32767	
4132	0	32820	
4133	0	32802	
4134	0	32856	
4135	0	32869	
4136	0	32860	
4137	0	32804	
4138	0	32840	
4139	0	32821	
4140	0	32832	
4141	0	32764	
4142	0	32714	
4143	0	32748	
4144	0	32724	
4145	0	32792	
4146	0	32712	
4147	0	32720	
4148	0	32692	
4149	0	32712	
4150	0	32792	
4151	0	32828	
4152	0	32821	
4153	0	32780	
4154	0	32845	
4155	0	32860	
4156	0	32878	
4157	0	32772	
4158	0	32804	
4159	0	32836	
4160	0	32820	
4161	0	32780	
4162	0	32784	
4163	0	32724	
4164	0	32708	
4165	0	32716	
4166	0	32709	
4167	0	32748	
4168	0	32770	
4169	0	32712	
4170	0	32692	
4171	0	32746	
4172	0	32800	
4173	0	32784	
4174	0	32836	
4175	0	32884	
4176	0	32966	
4177	0	32888	
4178	0	32880	
4179	0	32829	
4180	0	32784	
4181	0	32788	
4182	0	32740	
4183	0	32756	
4184	0	32740	
4185	0	32686	
4186	0	32664	
4187	0	32724	
4188	0	32756	
4189	0	32756	
4190	0	32760	
4191	0	32808	
4192	0	32728	
4193	0	32760	
4194	0	32792	
4195	0	32840	
4196	0	32880	
4197	0	32820	
4198	0	32772	
4199	0	32852	
4200	0	32881	
4201	0	32836	
4202	0	32748	
4203	0	32836	
4204	0	32720	
4205	0	32698	
4206	0	32748	
4207	0	32716	
4208	0	32806	
4209	0	32684	
4210	0	32708	
4211	0	32817	
4212	0	32764	
4213	0	32828	
4214	0	32828	
4215	0	32889	
4216	0	32948	
4217	0	32812	
4218	0	32776	
4219	0	32796	
4220	0	32716	
4221	0	32772	
4222	0	32804	
4223	0	32764	
4224	0	32732	
4225	0	32688	
4226	0	32733	
4227	0	32756	
4228	0	32680	
4229	0	32652	
4230	0	32696	
4231	0	32772	
4232	0	32840	
4233	0	32837	
4234	0	32820	
4235	0	32848	
4236	0	32796	
4237	0	32840	
4238	0	32856	
4239	0	32846	
4240	0	32844	
4241	0	32804	
4242	0	32800	
4243	0	32752	
4244	0	32748	
4245	0	32708	
4246	0	32724	
4247	0	32676	
4248	0	32720	
4249	0	32724	
4250	0	32772	
4251	0	32808	
4252	0	32761	
4253	0	32872	
4254	0	32836	
4255	0	32804	
4256	0	32865	
4257	0	32796	
4258	0	32852	
4259	0	32884	
4260	0	32776	
4261	0	32736	
4262	0	32768	
4263	0	32760	
4264	0	32704	
4265	0	32714	
4266	0	32792	
4267	0	32738	
4268	0	32673	
4269	0	32728	
4270	0	32762	
4271	0	32784	
4272	0	32788	
4273	0	32846	
4274	0	32848	
4275	0	32860	
4276	0	32828	
4277	0	32800	
4278	0	32856	
4279	0	32897	
4280	0	32796	
4281	0	32756	
4282	0	32820	
4283	0	32766	
4284	0	32760	
4285	0	32716	
4286	0	32736	
4287	0	32688	
4288	0	32712	
4289	0	32726	
4290	0	32832	
4291	0	32821	
4292	0	32756	
4293	0	32746	
4294	0	32812	
4295	0	32868	
4296	0	32871	
4297	0	32848	
4298	0	32912	
4299	0	32848	
4300	0	32784	
4301	0	32740	
4302	0	32720	
4303	0	32756	
4304	0	32624	
4305	0	32693	
4306	0	32724	
4307	0	32672	
4308	0	32742	
4309	0	32789	
4310	0	32748	
4311	0	32764	
4312	0	32752	
4313	0	32876	
4314	0	32828	
4315	0	32812	
4316	0	32768	
4317	0	32832	
4318	0	32904	
4319	0	32888	
4320	0	32864	
4321	0	32854	
4322	0	32820	
4323	0	32808	
4324	0	32760	
4325	0	32704	
4326	0	32640	
4327	0	32620	
4328	0	32692	
4329	0	32804	
4330	0	32948	
4331	0	32820	
4332	0	32752	
4333	0	32741	
4334	0	32756	
4335	0	32786	
4336	0	32784	
4337	0	32808	
4338	0	32832	
4339	0	32820	
4340	0	32796	
4341	0	32816	
4342	0	32764	
4343	0	32760	
4344	0	32726	
4345	0	32688	
4346	0	32816	
4347	0	32788	
4348	0	32695	
4349	0	32660	
4350	0	32688	
4351	0	32810	
4352	0	32768	
4353	0	32800	
4354	0	32864	
4355	0	32856	
4356	0	32868	
4357	0	32840	
4358	0	32878	
4359	0	32792	
4360	0	32762	
4361	0	32804	
4362	0	32764	
4363	0	32772	
4364	0	32788	
4365	0	32762	
4366	0	32692	
4367	0	32756	
4368	0	32696	
4369	0	32704	
4370	0	32696	
4371	0	32718	
4372	0	32760	
4373	0	32928	
4374	0	32824	
4375	0	32716	
4376	0	32837	
4377	0	32896	
4378	0	32893	
4379	0	32904	
4380	0	32796	
4381	0	32772	
4382	0	32752	
4383	0	32784	
4384	0	32716	
4385	0	32748	
4386	0	32704	
4387	0	32724	
4388	0	32756	
4389	0	32737	
4390	0	32736	
4391	0	32774	
4392	0	32776	
4393	0	32780	
4394	0	32780	
4395	0	32868	
4396	0	32848	
4397	0	32836	
4398	0	32846	
4399	0	32856	
4400	0	32772	
4401	0	32828	
4402	0	32708	
4403	0	32764	
4404	0	32773	
4405	0	32716	
4406	0	32717	
4407	0	32680	
4408	0	32704	
4409	0	32704	
4410	0	32800	
4411	0	32806	
4412	0	32784	
4413	0	32814	
4414	0	32828	
4415	0	32796	
4416	0	32848	
4417	0	32864	
4418	0	32844	
4419	0	32856	
4420	0	32884	
4421	0	32689	
4422	0	32780	
4423	0	32733	
4424	0	32740	
4425	0	32756	
4426	0	32784	
4427	0	32740	
4428	0	32724	
4429	0	32732	
4430	0	32776	
4431	0	32716	
4432	0	32764	
4433	0	32832	
4434	0	32881	
4435	0	32756	
4436	0	32808	
4437	0	32888	
4438	0	32852	
4439	0	32789	
4440	0	32828	
4441	0	32816	
4442	0	32776	
4443	0	32796	
4444	0	32772	
4445	0	32736	
4446	0	32776	
4447	0	32688	
4448	0	32708	
4449	0	32740	
4450	0	32702	
4451	0	32812	
4452	0	32776	
4453	0	32788	
4454	0	32844	
4455	0	32848	
4456	0	32896	
4457	0	32784	
4458	0	32820	
4459	0	32768	
4460	0	32820	
4461	0	32708	
4462	0	32769	
4463	0	32772	
4464	0	32750	
4465	0	32708	
4466	0	32772	
4467	0	32772	
4468	0	32716	
4469	0	32688	
4470	0	32744	
4471	0	32796	
4472	0	32820	
4473	0	32844	
4474	0	32860	
4475	0	32845	
4476	0	32848	
4477	0	32852	
4478	0	32776	
4479	0	32796	
4480	0	32820	
4481	0	32712	
4482	0	32688	
4483	0	32760	
4484	0	32737	
4485	0	32672	
4486	0	32864	
4487	0	32756	
4488	0	32740	
4489	0	32717	
4490	0	32728	
4491	0	32816	
4492	0	32768	
4493	0	32772	
4494	0	32757	
4495	0	32802	
4496	0	32781	
4497	0	32916	
4498	0	32896	
4499	0	32820	
4500	0	32816	
4501	0	32760	
4502	0	32780	
4503	0	32704	
4504	0	32772	
4505	0	32696	
4506	0	32752	
4507	0	32744	
4508	0	32746	
4509	0	32740	
4510	0	32712	
4511	0	32656	
4512	0	32832	
4513	0	32832	
4514	0	32816	
4515	0	32852	
4516	0	32868	
4517	0	32840	
4518	0	32840	
4519	0	32824	
4520	0	32764	
4521	0	32748	
4522	0	32774	
4523	0	32836	
4524	0	32696	
4525	0	32693	
4526	0	32668	
4527	0	32784	
4528	0	32720	
4529	0	32750	
4530	0	32732	
4531	0	32736	
4532	0	32813	
4533	0	32812	
4534	0	32796	
4535	0	32852	
4536	0	32833	
4537	0	32808	
4538	0	32804	
4539	0	32804	
4540	0	32864	
4541	0	32812	
4542	0	32700	
4543	0	32812	
4544	0	32775	
4545	0	32752	
4546	0	32700	
4547	0	32696	
4548	0	32708	
4549	0	32688	
4550	0	32828	
4551	0	32744	
4552	0	32776	
4553	0	32796	
4554	0	32776	
4555	0	32816	
4556	0	32816	
4557	0	32860	
4558	0	32840	
4559	0	32868	
4560	0	32878	
4561	0	32764	
4562	0	32765	
4563	0	32772	
4564	0	32784	
4565	0	32716	
4566	0	32676	
4567	0	32749	
4568	0	32772	
4569	0	32764	
4570	0	32796	
4571	0	32821	
4572	0	32860	
4573	0	32872	
4574	0	32797	
4575	0	32720	
4576	0	32736	
4577	0	32766	
4578	0	32864	
4579	0	32776	
4580	0	32860	
4581	0	32844	
4582	0	32752	
4583	0	32712	
4584	0	32784	
4585	0	32661	
4586	0	32748	
4587	0	32724	
4588	0	32713	
4589	0	32760	
4590	0	32700	
4591	0	32712	
4592	0	32781	
4593	0	32812	
4594	0	32820	
4595	0	32742	
4596	0	32804	
4597	0	32884	
4598	0	32788	
4599	0	32820	
4600	0	32944	
4601	0	32772	
4602	0	32784	
4603	0	32776	
4604	0	32848	
4605	0	32727	
4606	0	32724	
4607	0	32664	
4608	0	32728	
4609	0	32672	
4610	0	32696	
4611	0	32772	
4612	0	32910	
4613	0	32820	
4614	0	32724	
4615	0	32824	
4616	0	32872	
4617	0	32876	
4618	0	32804	
4619	0	32764	
4620	0	32699	
4621	0	32748	
4622	0	32796	
4623	0	32780	
4624	0	32748	
4625	0	32768	
4626	0	32804	
4627	0	32729	
4628	0	32752	
4629	0	32756	
4630	0	32762	
4631	0	32732	
4632	0	32728	
4633	0	32832	
4634	0	32772	
4635	0	32800	
4636	0	32816	
4637	0	32864	
4638	0	32836	
4639	0	32774	
4640	0	32804	
4641	0	32816	
4642	0	32780	
4643	0	32756	
4644	0	32692	
4645	0	32760	
4646	0	32756	
4647	0	32736	
4648	0	32708	
4649	0	32705	
4650	0	32796	
4651	0	32760	
4652	0	32780	
4653	0	32796	
4654	0	32788	
4655	0	32860	
4656	0	32784	
4657	0	32904	
4658	0	32812	
4659	0	32828	
4660	0	32865	
4661	0	32752	
4662	0	32776	
4663	0	32692	
4664	0	32744	
4665	0	32880	
4666	0	32804	
4667	0	32656	
4668	0	32692	
4669	0	32684	
4670	0	32752	
4671	0	32800	
4672	0	32808	
4673	0	32828	
4674	0	32828	
4675	0	32836	
4676	0	32821	
4677	0	32864	
4678	0	32896	
4679	0	32808	
4680	0	32704	
4681	0	32776	
4682	0	32816	
4683	0	32760	
4684	0	32752	
4685	0	32740	
4686	0	32692	
4687	0	32726	
4688	0	32736	
4689	0	32768	
4690	0	32728	
4691	0	32796	
4692	0	32796	
4693	0	32876	
4694	0	32892	
4695	0	32752	
4696	0	32848	
4697	0	32812	
4698	0	32840	
4699	0	32772	
4700	0	32816	
4701	0	32792	
4702	0	32856	
4703	0	32760	
4704	0	32733	
4705	0	32688	
4706	0	32772	
4707	0	32736	
4708	0	32700	
4709	0	32780	
4710	0	32716	
4711	0	32804	
4712	0	32804	
4713	0	32860	
4714	0	32736	
4715	0	32720	
4716	0	32748	
4717	0	32816	
4718	0	32845	
4719	0	32776	
4720	0	32810	
4721	0	32881	
4722	0	32788	
4723	0	32776	
4724	0	32748	
4725	0	32824	
4726	0	32702	
4727	0	32700	
4728	0	32740	
4729	0	32768	
4730	0	32696	
4731	0	32744	
4732	0	32820	
4733	0	32888	
4734	0	32812	
4735	0	32836	
4736	0	32793	
4737	0	32800	
4738	0	32848	
4739	0	32758	
4740	0	32774	
4741	0	32828	
4742	0	32740	
4743	0	32772	
4744	0	32752	
4745	0	32740	
4746	0	32700	
4747	0	32724	
4748	0	32740	
4749	0	32748	
4750	0	32716	
4751	0	32744	
4752	0	32792	
4753	0	32761	
4754	0	32885	
4755	0	32816	
4756	0	32817	
4757	0	32856	
4758	0	32832	
4759	0	32868	
4760	0	32724	
4761	0	32788	
4762	0	32792	
4763	0	32784	
4764	0	32800	
4765	0	32756	
4766	0	32724	
4767	0	32728	
4768	0	32668	
4769	0	32730	
4770	0	32769	
4771	0	32816	
4772	0	32792	
4773	0	32796	
4774	0	32788	
4775	0	32844	
4776	0	32852	
4777	0	32804	
4778	0	32864	
4779	0	32844	
4780	0	32840	
4781	0	32794	
4782	0	32724	
4783	0	32761	
4784	0	32776	
4785	0	32696	
4786	0	32668	
4787	0	32708	
4788	0	32720	
4789	0	32784	
4790	0	32772	
4791	0	32804	
4792	0	32728	
4793	0	32785	
4794	0	32836	
4795	0	32836	
4796	0	32868	
4797	0	32864	
4798	0	32820	
4799	0	32808	
4800	0	32774	
4801	0	32742	
4802	0	32764	
4803	0	32754	
4804	0	32764	
4805	0	32788	
4806	0	32704	
4807	0	32676	
4808	0	32830	
4809	0	32717	
4810	0	32764	
4811	0	32792	
4812	0	32772	
4813	0	32766	
4814	0	32768	
4815	0	32797	
4816	0	32840	
4817	0	32796	
4818	0	32884	
4819	0	32834	
4820	0	32772	
4821	0	32821	
4822	0	32752	
4823	0	32748	
4824	0	32684	
4825	0	32744	
4826	0	32824	
4827	0	32728	
4828	0	32676	
4829	0	32724	
4830	0	32669	
4831	0	32766	
4832	0	32830	
4833	0	32776	
4834	0	32824	
4835	0	32868	
4836	0	32804	
4837	0	32861	
4838	0	32860	
4839	0	32820	
4840	0	32769	
4841	0	32772	
4842	0	32788	
4843	0	32764	
4844	0	32753	
4845	0	32725	
4846	0	32748	
4847	0	32668	
4848	0	32776	
4849	0	32712	
4850	0	32792	
4851	0	32724	
4852	0	32840	
4853	0	32868	
4854	0	32736	
4855	0	32840	
4856	0	32816	
4857	0	32884	
4858	0	32836	
4859	0	32780	
4860	0	32789	
4861	0	32748	
4862	0	32804	
4863	0	32812	
4864	0	32749	
4865	0	32788	
4866	0	32708	
4867	0	32696	
4868	0	32724	
4869	0	32676	
4870	0	32788	
4871	0	32828	
4872	0	32810	
4873	0	32788	
4874	0	32716	
4875	0	32801	
4876	0	32856	
4877	0	32844	
4878	0	32868	
4879	0	32917	
4880	0	32852	
4881	0	32768	
4882	0	32780	
4883	0	32736	
4884	0	32684	
4885	0	32741	
4886	0	32661	
4887	0	32748	
4888	0	32740	
4889	0	32712	
4890	0	32693	
4891	0	32844	
4892	0	32824	
4893	0	32820	
4894	0	32742	
4895	0	32748	
4896	0	32768	
4897	0	32836	
4898	0	32928	
4899	0	32918	
4900	0	32804	
4901	0	32772	
4902	0	32836	
4903	0	32820	
4904	0	32815	
4905	0	32680	
4906	0	32664	
4907	0	32712	
4908	0	32737	
4909	0	32692	
4910	0	32708	
4911	0	32782	
4912	0	32852	
4913	0	32812	
4914	0	32828	
4915	0	32807	
4916	0	32832	
4917	0	32876	
4918	0	32896	
4919	0	32816	
4920	0	32797	
4921	0	32752	
4922	0	32780	
4923	0	32748	
4924	0	32772	
4925	0	32796	
4926	0	32796	
4927	0	32712	
4928	0	32701	
4929	0	32689	
4930	0	32745	
4931	0	32764	
4932	0	32748	
4933	0	32780	
4934	0	32696	
4935	0	32844	
4936	0	32872	
4937	0	32824	
4938	0	32892	
4939	0	32829	
4940	0	32820	
4941	0	32752	
4942	0	32769	
4943	0	32760	
4944	0	32784	
4945	0	32732	
4946	0	32722	
4947	0	32756	
4948	0	32720	
4949	0	32712	
4950	0	32772	
4951	0	32744	
4952	0	32832	
4953	0	32776	
4954	0	32760	
4955	0	32852	
4956	0	32808	
4957	0	32856	
4958	0	32852	
4959	0	32868	
4960	0	32854	
4961	0	32800	
4962	0	32752	
4963	0	32809	
4964	0	32734	
4965	0	32748	
4966	0	32688	
4967	0	32684	
4968	0	32724	
4969	0	32888	
4970	0	32816	
4971	0	32748	
4972	0	32708	
4973	0	32740	
4974	0	32780	
4975	0	32804	
4976	0	32808	
4977	0	32892	
4978	0	32884	
4979	0	32864	
4980	0	32804	
4981	0	32760	
4982	0	32756	
4983	0	32816	
4984	0	32780	
4985	0	32745	
4986	0	32740	
4987	0	32684	
4988	0	32672	
4989	0	32676	
4990	0	32772	
4991	0	32740	
4992	0	32804	
4993	0	32865	
4994	0	32808	
4995	0	32780	
4996	0	32848	
4997	0	32888	
4998	0	32836	
4999	0	32868	
5000	0	32869	
5001	0	32800	
5002	0	32768	
5003	0	32737	
5004	0	32724	
5005	0	32740	
5006	0	32652	
5007	0	32716	
5008	0	32804	
5009	0	32861	
5010	0	32760	
5011	0	32764	
5012	0	32772	
5013	0	32772	
5014	0	32804	
5015	0	32716	
5016	0	32864	
5017	0	32884	
5018	0	32809	
5019	0	32908	
5020	0	32797	
5021	0	32804	
5022	0	32776	
5023	0	32714	
5024	0	32696	
5025	0	32708	
5026	0	32712	
5027	0	32741	
5028	0	32824	
5029	0	32728	
5030	0	32856	
5031	0	32785	
5032	0	32832	
5033	0	32773	
5034	0	32764	
5035	0	32744	
5036	0	32806	
5037	0	32784	
5038	0	32768	
5039	0	32804	
5040	0	32980	
5041	0	32844	
5042	0	32798	
5043	0	32708	
5044	0	32748	
5045	0	32736	
5046	0	32640	
5047	0	32696	
5048	0	32724	
5049	0	32740	
5050	0	32759	
5051	0	32782	
5052	0	32812	
5053	0	32768	
5054	0	32813	
5055	0	32862	
5056	0	32844	
5057	0	32824	
5058	0	32824	
5059	0	32804	
5060	0	32769	
5061	0	32792	
5062	0	32756	
5063	0	32772	
5064	0	32764	
5065	0	32740	
5066	0	32688	
5067	0	32744	
5068	0	32749	
5069	0	32774	
5070	0	32824	
5071	0	32796	
5072	0	32746	
5073	0	32793	
5074	0	32793	
5075	0	32812	
5076	0	32832	
5077	0	32832	
5078	0	32852	
5079	0	32844	
5080	0	32800	
5081	0	32760	
5082	0	32860	
5083	0	32744	
5084	0	32744	
5085	0	32704	
5086	0	32768	
5087	0	32769	
5088	0	32741	
5089	0	32704	
5090	0	32740	
5091	0	32784	
5092	0	32832	
5093	0	32780	
5094	0	32788	
5095	0	32812	
5096	0	32948	
5097	0	32812	
5098	0	32804	
5099	0	32692	
5100	0	32712	
5101	0	32744	
5102	0	32585	
5103	0	32600	
5104	0	32644	
5105	0	33196	
5106	0	33232	
5107	0	32812	
5108	0	32648	
5109	0	32662	
5110	0	32704	
5111	0	32716	
5112	0	32692	
5113	0	32756	
5114	0	32732	
5115	0	32801	
5116	0	32664	
5117	0	32868	
5118	0	32881	
5119	0	32824	
5120	0	32893	
5121	0	32804	
5122	0	32748	
5123	0	32668	
5124	0	32686	
5125	0	32708	
5126	0	32688	
5127	0	32742	
5128	0	32688	
5129	0	33052	
5130	0	32952	
5131	0	32752	
5132	0	32988	
5133	0	32836	
5134	0	32640	
5135	0	32784	
5136	0	32740	
5137	0	32620	
5138	0	32696	
5139	0	32924	
5140	0	33004	
5141	0	32820	
5142	0	32772	
5143	0	32824	
5144	0	32784	
5145	0	32720	
5146	0	32616	
5147	0	32652	
5148	0	32654	
5149	0	32688	
5150	0	32648	
5151	0	32840	
5152	0	32836	
5153	0	32820	
5154	0	32854	
5155	0	32845	
5156	0	32832	
5157	0	32937	
5158	0	32852	
5159	0	32740	
5160	0	32737	
5161	0	32656	
5162	0	32772	
5163	0	32748	
5164	0	32730	
5165	0	32748	
5166	0	32748	
5167	0	32848	
5168	0	32780	
5169	0	32716	
5170	0	32734	
5171	0	32676	
5172	0	32736	
5173	0	32764	
5174	0	32745	
5175	0	32800	
5176	0	32732	
5177	0	32736	
5178	0	32749	
5179	0	32832	
5180	0	32753	
5181	0	32704	
5182	0	32776	
5183	0	32720	
5184	0	32812	
5185	0	32736	
5186	0	32776	
5187	0	32884	
5188	0	32876	
5189	0	32856	
5190	0	32928	
5191	0	33064	
5192	0	33124	
5193	0	32928	
5194	0	32796	
5195	0	32884	
5196	0	32816	
5197	0	32836	
5198	0	32612	
5199	0	32656	
5200	0	32688	
5201	0	32656	
5202	0	32732	
5203	0	32672	
5204	0	32592	
5205	0	32528	
5206	0	32772	
5207	0	32644	
5208	0	32672	
5209	0	33030	
5210	0	32876	
5211	0	32885	
5212	0	32936	
5213	0	33012	
5214	0	32756	
5215	0	33272	
5216	0	33364	
5217	0	32836	
5218	0	32460	
5219	0	32388	
5220	0	32524	
5221	0	32798	
5222	0	32677	
5223	0	32644	
5224	0	32740	
5225	0	32712	
5226	0	32776	
5227	0	32676	
5228	0	32656	
5229	0	32692	
5230	0	32736	
5231	0	32801	
5232	0	32768	
5233	0	32712	
5234	0	32740	
5235	0	32968	
5236	0	32960	
5237	0	32821	
5238	0	32824	
5239	0	32720	
5240	0	32784	
5241	0	32903	
5242	0	32772	
5243	0	32724	
5244	0	32804	
5245	0	32776	
5246	0	32733	
5247	0	32704	
5248	0	32773	
5249	0	32736	
5250	0	32744	
5251	0	32860	
5252	0	32668	
5253	0	32676	
5254	0	32584	
5255	0	32568	
5256	0	32646	
5257	0	32796	
5258	0	32748	
5259	0	32728	
5260	0	32624	
5261	0	32452	
5262	0	32436	
5263	0	32588	
5264	0	33060	
5265	0	33096	
5266	0	32757	
5267	0	32544	
5268	0	33560	
5269	0	34240	
5270	0	34428	
5271	0	33716	
5272	0	32012	
5273	0	32116	
5274	0	32400	
5275	0	32369	
5276	0	32984	
5277	0	33308	
5278	0	31796	
5279	0	31992	
5280	0	32484	
5281	0	32504	
5282	0	32192	
5283	0	32214	
5284	0	32588	
5285	0	32520	
5286	0	32276	
5287	0	32388	
5288	0	33048	
5289	0	33596	
5290	0	33290	
5291	0	33064	
5292	0	33476	
5293	0	33758	
5294	0	33868	
5295	0	33994	
5296	0	33964	
5297	0	34028	
5298	0	33484	
5299	0	33528	
5300	0	32528	
5301	0	31041	
5302	0	32325	
5303	0	32976	
5304	0	32396	
5305	0	31656	
5306	0	30684	
5307	0	30318	
5308	0	31336	
5309	0	31748	
5310	0	32192	
5311	0	33192	
5312	0	33500	
5313	0	33073	
5314	0	33120	
5315	0	32849	
5316	0	33188	
5317	0	33672	
5318	0	34222	
5319	0	33720	
5320	0	33016	
5321	0	33224	
5322	0	33784	
5323	0	33408	
5324	0	32660	
5325	0	31740	
5326	0	31312	
5327	0	31449	
5328	0	31524	
5329	0	32663	
5330	0	31988	
5331	0	32876	
5332	0	32512	
5333	0	32628	
5334	0	33036	
5335	0	33628	
5336	0	34184	
5337	0	34292	
5338	0	32800	
5339	0	32708	
5340	0	33242	
5341	0	32832	
5342	0	31740	
5343	0	31340	
5344	0	31980	
5345	0	31912	
5346	0	30300	
5347	0	30640	
5348	0	31268	
5349	0	31896	
5350	0	33592	
5351	0	34508	
5352	0	33948	
5353	0	33992	
5354	0	35093	
5355	0	34336	
5356	0	34236	
5357	0	32724	
5358	0	31837	
5359	0	33313	
5360	0	33444	
5361	0	33209	
5362	0	33620	
5363	0	34293	
5364	0	35408	
5365	0	33916	
5366	0	30717	
5367	0	30950	
5368	0	31708	
5369	0	30844	
5370	0	30824	
5371	0	31248	
5372	0	31336	
5373	0	31696	
5374	0	32428	
5375	0	32816	
5376	0	33260	
5377	0	34752	
5378	0	35997	
5379	0	35908	
5380	0	34872	
5381	0	34342	
5382	0	33692	
5383	0	33004	
5384	0	32972	
5385	0	31730	
5386	0	29828	
5387	0	28932	
5388	0	30180	
5389	0	31372	
5390	0	31856	
5391	0	31748	
5392	0	33053	
5393	0	32954	
5394	0	32608	
5395	0	33196	
5396	0	32732	
5397	0	31464	
5398	0	31438	
5399	0	32816	
5400	0	33820	
5401	0	33660	
5402	0	33964	
5403	0	34671	
5404	0	34052	
5405	0	32460	
5406	0	33057	
5407	0	33976	
5408	0	32888	
5409	0	32084	
5410	0	32400	
5411	0	32792	
5412	0	31756	
5413	0	31028	
5414	0	30900	
5415	0	33056	
5416	0	34820	
5417	0	35016	
5418	0	34273	
5419	0	34444	
5420	0	34128	
5421	0	33647	
5422	0	33420	
5423	0	33832	
5424	0	34316	
5425	0	33664	
5426	0	31768	
5427	0	30820	
5428	0	30732	
5429	0	31868	
5430	0	32928	
5431	0	34836	
5432	0	35300	
5433	0	34732	
5434	0	31440	
5435	0	28028	
5436	0	28922	
5437	0	30756	
5438	0	32776	
5439	0	32792	
5440	0	33044	
5441	0	33064	
5442	0	33340	
5443	0	33748	
5444	0	33956	
5445	0	32736	
5446	0	32285	
5447	0	31700	
5448	0	32640	
5449	0	33032	
5450	0	32724	
5451	0	30976	
5452	0	29296	
5453	0	28892	
5454	0	29508	
5455	0	30240	
5456	0	32528	
5457	0	33892	
5458	0	36188	
5459	0	37248	
5460	0	38098	
5461	0	37680	
5462	0	38164	
5463	0	39112	
5464	0	40568	
5465	0	37544	
5466	0	34156	
5467	0	30520	
5468	0	26564	
5469	0	27180	
5470	0	29760	
5471	0	31716	
5472	0	30444	
5473	0	28420	
5474	0	28800	
5475	0	29372	
5476	0	28768	
5477	0	29328	
5478	0	30620	
5479	0	32494	
5480	0	34081	
5481	0	34896	
5482	0	34533	
5483	0	34068	
5484	0	33948	
5485	0	33924	
5486	0	34276	
5487	0	34400	
5488	0	34580	
5489	0	34832	
5490	0	34956	
5491	0	34550	
5492	0	33817	
5493	0	32661	
5494	0	30712	
5495	0	30128	
5496	0	30080	
5497	0	28844	
5498	0	28428	
5499	0	29708	
5500	0	31452	
5501	0	33932	
5502	0	35476	
5503	0	35576	
5504	0	35304	
5505	0	36004	
5506	0	35920	
5507	0	36041	
5508	0	36532	
5509	0	37096	
5510	0	36568	
5511	0	34364	
5512	0	33956	
5513	0	33629	
5514	0	30532	
5515	0	27684	
5516	0	27316	
5517	0	30109	
5518	0	33200	
5519	0	31976	
5520	0	32592	
5521	0	33654	
5522	0	30458	
5523	0	28684	
5524	0	29960	
5525	0	29788	
5526	0	29120	
5527	0	29670	
5528	0	30991	
5529	0	32224	
5530	0	33236	
5531	0	35032	
5532	0	37348	
5533	0	36469	
5534	0	35276	
5535	0	36212	
5536	0	34348	
5537	0	31148	
5538	0	31828	
5539	0	33220	
5540	0	32532	
5541	0	33108	
5542	0	34356	
5543	0	34215	
5544	0	33092	
5545	0	32964	
5546	0	32972	
5547	0	32560	
5548	0	31524	
5549	0	30828	
5550	0	31513	
5551	0	32353	
5552	0	31716	
5553	0	31892	
5554	0	32996	
5555	0	32616	
5556	0	33096	
5557	0	33616	
5558	0	33632	
5559	0	33756	
5560	0	34436	
5561	0	35164	
5562	0	34552	
5563	0	32952	
5564	0	32492	
5565	0	32736	
5566	0	32600	
5567	0	32116	
5568	0	32000	
5569	0	31744	
5570	0	30552	
5571	0	30636	
5572	0	31168	
5573	0	31160	
5574	0	31280	
5575	0	32272	
5576	0	32701	
5577	0	32816	
5578	0	33276	
5579	0	34144	
5580	0	34044	
5581	0	33260	
5582	0	33796	
5583	0	33796	
5584	0	32532	
5585	0	31736	
5586	0	33560	
5587	0	34892	
5588	0	35100	
5589	0	34840	
5590	0	34980	
5591	0	34828	
5592	0	31861	
5593	0	30272	
5594	0	31180	
5595	0	31656	
5596	0	31956	
5597	0	33466	
5598	0	34436	
5599	0	34036	
5600	0	31812	
5601	0	29976	
5602	0	29680	
5603	0	30528	
5604	0	31650	
5605	0	32496	
5606	0	33484	
5607	0	34101	
5608	0	34671	
5609	0	34248	
5610	0	33000	
5611	0	33296	
5612	0	33360	
5613	0	32705	
5614	0	31592	
5615	0	31504	
5616	0	32440	
5617	0	32812	
5618	0	33108	
5619	0	32708	
5620	0	31744	
5621	0	31208	
5622	0	31502	
5623	0	32392	
5624	0	32878	
5625	0	33700	
5626	0	33444	
5627	0	33288	
5628	0	34300	
5629	0	34964	
5630	0	32876	
5631	0	30852	
5632	0	30916	
5633	0	31644	
5634	0	32688	
5635	0	34103	
5636	0	33406	
5637	0	33269	
5638	0	33901	
5639	0	33968	
5640	0	34360	
5641	0	35220	
5642	0	35330	
5643	0	33956	
5644	0	32028	
5645	0	30484	
5646	0	30044	
5647	0	30104	
5648	0	30485	
5649	0	30761	
5650	0	31404	
5651	0	32396	
5652	0	33320	
5653	0	34038	
5654	0	34416	
5655	0	34068	
5656	0	34160	
5657	0	34024	
5658	0	33904	
5659	0	33572	
5660	0	33124	
5661	0	32588	
5662	0	33484	
5663	0	33020	
5664	0	32516	
5665	0	32340	
5666	0	32296	
5667	0	32828	
5668	0	32808	
5669	0	32756	
5670	0	32593	
5671	0	32220	
5672	0	32032	
5673	0	32052	
5674	0	32356	
5675	0	32200	
5676	0	32126	
5677	0	32552	
5678	0	32824	
5679	0	32986	
5680	0	33340	
5681	0	33144	
5682	0	32796	
5683	0	32568	
5684	0	32500	
5685	0	32916	
5686	0	32832	
5687	0	32676	
5688	0	31288	
5689	0	31828	
5690	0	33012	
5691	0	33765	
5692	0	33581	
5693	0	32424	
5694	0	32820	
5695	0	33152	
5696	0	33472	
5697	0	32637	
5698	0	32521	
5699	0	32396	
5700	0	32480	
5701	0	32857	
5702	0	33020	
5703	0	33297	
5704	0	32628	
5705	0	33044	
5706	0	32736	
5707	0	32252	
5708	0	32316	
5709	0	32620	
5710	0	32924	
5711	0	32948	
5712	0	32969	
5713	0	32908	
5714	0	32812	
5715	0	32836	
5716	0	32944	
5717	0	33024	
5718	0	32964	
5719	0	32800	
5720	0	32841	
5721	0	32740	
5722	0	32790	
5723	0	32756	
5724	0	32774	
5725	0	32804	
5726	0	32804	
5727	0	32612	
5728	0	32612	
5729	0	32596	
5730	0	32636	
5731	0	32696	
5732	0	32772	
5733	0	32940	
5734	0	32978	
5735	0	32920	
5736	0	33164	
5737	0	32945	
5738	0	32672	
5739	0	32676	
5740	0	32718	
5741	0	32824	
5742	0	32816	
5743	0	32792	
5744	0	32668	
5745	0	32712	
5746	0	32684	
5747	0	32708	
5748	0	32656	
5749	0	32668	
5750	0	32700	
5751	0	32749	
5752	0	32724	
5753	0	32744	
5754	0	32780	
5755	0	32836	
5756	0	32884	
5757	0	32976	
5758	0	32884	
5759	0	32868	
5760	0	32904	
5761	0	32848	
5762	0	32769	
5763	0	32736	
5764	0	32752	
5765	0	32644	
5766	0	32688	
5767	0	32648	
5768	0	32740	
5769	0	32736	
5770	0	32768	
5771	0	32776	
5772	0	32700	
5773	0	32760	
5774	0	32924	
5775	0	32908	
5776	0	32896	
5777	0	32744	
5778	0	32729	
5779	0	32864	
5780	0	32824	
5781	0	32900	
5782	0	32896	
5783	0	32932	
5784	0	32732	
5785	0	32532	
5786	0	32548	
5787	0	32932	
5788	0	32448	
5789	0	32540	
5790	0	32896	
5791	0	32560	
5792	0	32792	
5793	0	32965	
5794	0	33272	
5795	0	32862	
5796	0	33044	
5797	0	32446	
5798	0	32101	
5799	0	32720	
5800	0	33164	
5801	0	33248	
5802	0	32924	
5803	0	32856	
5804	0	33004	
5805	0	32692	
5806	0	32408	
5807	0	32512	
5808	0	32637	
5809	0	32716	
5810	0	32792	
5811	0	32760	
5812	0	32796	
5813	0	32814	
5814	0	32889	
5815	0	32864	
5816	0	32928	
5817	0	32980	
5818	0	32908	
5819	0	32856	
5820	0	32869	
5821	0	32760	
5822	0	32712	
5823	0	32716	
5824	0	32704	
5825	0	32736	
5826	0	32741	
5827	0	32708	
5828	0	32732	
5829	0	32724	
5830	0	32788	
5831	0	32776	
5832	0	32788	
5833	0	32700	
5834	0	32788	
5835	0	32784	
5836	0	32764	
5837	0	32836	
5838	0	32840	
5839	0	32942	
5840	0	32808	
5841	0	32780	
5842	0	32880	
5843	0	32848	
5844	0	32868	
5845	0	32600	
5846	0	32504	
5847	0	32631	
5848	0	32696	
5849	0	32636	
5850	0	32645	
5851	0	32801	
5852	0	32772	
5853	0	32708	
5854	0	32696	
5855	0	32864	
5856	0	32824	
5857	0	32964	
5858	0	32837	
5859	0	32902	
5860	0	32852	
5861	0	32845	
5862	0	32900	
5863	0	32652	
5864	0	32856	
5865	0	32766	
5866	0	32688	
5867	0	33004	
5868	0	33180	
5869	0	33248	
5870	0	32628	
5871	0	32560	
5872	0	32580	
5873	0	32632	
5874	0	32624	
5875	0	32640	
5876	0	32720	
5877	0	32748	
5878	0	32768	
5879	0	32780	
5880	0	32764	
5881	0	32740	
5882	0	32613	
5883	0	32461	
5884	0	32600	
5885	0	32432	
5886	0	33009	
5887	0	32669	
5888	0	33008	
5889	0	33072	
5890	0	33116	
5891	0	32820	
5892	0	32728	
5893	0	32844	
5894	0	32808	
5895	0	32612	
5896	0	32816	
5897	0	32797	
5898	0	32936	
5899	0	32980	
5900	0	32932	
5901	0	32910	
5902	0	32746	
5903	0	32572	
5904	0	32556	
5905	0	32676	
5906	0	32700	
5907	0	32758	
5908	0	32884	
5909	0	32732	
5910	0	32685	
5911	0	32652	
5912	0	32740	
5913	0	32848	
5914	0	32744	
5915	0	32796	
5916	0	32868	
5917	0	32836	
5918	0	32804	
5919	0	32792	
5920	0	32880	
5921	0	32820	
5922	0	32864	
5923	0	32808	
5924	0	32854	
5925	0	32740	
5926	0	32717	
5927	0	32688	
5928	0	32752	
5929	0	32748	
5930	0	32680	
5931	0	32764	
5932	0	32876	
5933	0	32794	
5934	0	32764	
5935	0	32890	
5936	0	32896	
5937	0	32828	
5938	0	32844	
5939	0	32816	
5940	0	32929	
5941	0	32844	
5942	0	32692	
5943	0	32736	
5944	0	32692	
5945	0	32700	
5946	0	32780	
5947	0	32716	
5948	0	32712	
5949	0	32816	
5950	0	32808	
5951	0	32734	
5952	0	32848	
5953	0	32833	
5954	0	32796	
5955	0	32828	
5956	0	32909	
5957	0	32900	
5958	0	32812	
5959	0	32760	
5960	0	32752	
5961	0	32732	
5962	0	32676	
5963	0	32721	
5964	0	32740	
5965	0	32764	
5966	0	32840	
5967	0	32741	
5968	0	32824	
5969	0	32796	
5970	0	32796	
5971	0	32676	
5972	0	32672	
5973	0	32828	
5974	0	32832	
5975	0	32744	
5976	0	32761	
5977	0	32708	
5978	0	32880	
5979	0	32820	
5980	0	32721	
5981	0	32740	
5982	0	32941	
5983	0	32853	
5984	0	32708	
5985	0	32806	
5986	0	32772	
5987	0	32785	
5988	0	33020	
5989	0	32764	
5990	0	32524	
5991	0	32600	
5992	0	32848	
5993	0	32712	
5994	0	32704	
5995	0	32764	
5996	0	32844	
5997	0	32916	
5998	0	32879	
5999	0	32816	
6000	0	32792	
6001	0	32732	
6002	0	32714	
6003	0	32713	
6004	0	32702	
6005	0	32668	
6006	0	32740	
6007	0	32752	
6008	0	32676	
6009	0	32820	
6010	0	32768	
6011	0	32876	
6012	0	32788	
6013	0	32716	
6014	0	32942	
6015	0	33196	
6016	0	32864	
6017	0	32620	
6018	0	32680	
6019	0	32924	
6020	0	32992	
6021	0	32864	
6022	0	32709	
6023	0	32668	
6024	0	32716	
6025	0	32788	
6026	0	32732	
6027	0	32772	
6028	0	32728	
6029	0	32584	
6030	0	32625	
6031	0	32676	
6032	0	32856	
6033	0	32712	
6034	0	32748	
6035	0	32639	
6036	0	32712	
6037	0	32772	
6038	0	32784	
6039	0	32838	
6040	0	33176	
6041	0	32910	
6042	0	32824	
6043	0	32724	
6044	0	32720	
6045	0	32584	
6046	0	32646	
6047	0	32820	
6048	0	33164	
6049	0	33028	
6050	0	32772	
6051	0	32596	
6052	0	32660	
6053	0	32832	
6054	0	32720	
6055	0	32720	
6056	0	32772	
6057	0	32860	
6058	0	32876	
6059	0	32808	
6060	0	32828	
6061	0	32837	
6062	0	32980	
6063	0	32868	
6064	0	32736	
6065	0	32804	
6066	0	32804	
6067	0	32776	
6068	0	32596	
6069	0	32584	
6070	0	32700	
6071	0	32698	
6072	0	32756	
6073	0	32688	
6074	0	32648	
6075	0	32788	
6076	0	33029	
6077	0	32644	
6078	0	32628	
6079	0	32980	
6080	0	32960	
6081	0	32644	
6082	0	32780	
6083	0	32861	
6084	0	32864	
6085	0	32696	
6086	0	32684	
6087	0	32724	
6088	0	32752	
6089	0	32800	
6090	0	33004	
6091	0	32960	
6092	0	32893	
6093	0	32832	
6094	0	32892	
6095	0	32660	
6096	0	32636	
6097	0	32684	
6098	0	32700	
6099	0	32760	
6100	0	32601	
6101	0	32825	
6102	0	32873	
6103	0	32876	
6104	0	32948	
6105	0	32640	
6106	0	32996	
6107	0	32686	
6108	0	32740	
6109	0	32600	
6110	0	32552	
6111	0	32672	
6112	0	32621	
6113	0	32748	
6114	0	32828	
6115	0	33008	
6116	0	33045	
6117	0	32868	
6118	0	32728	
6119	0	33072	
6120	0	32776	
6121	0	32672	
6122	0	32670	
6123	0	32762	
6124	0	32824	
6125	0	32664	
6126	0	32689	
6127	0	32766	
6128	0	32680	
6129	0	32648	
6130	0	32757	
6131	0	32916	
6132	0	32944	
6133	0	32848	
6134	0	33053	
6135	0	32912	
6136	0	32796	
6137	0	32856	
6138	0	32748	
6139	0	32644	
6140	0	32836	
6141	0	32684	
6142	0	32812	
6143	0	32829	
6144	0	32708	
6145	0	32732	
6146	0	32616	
6147	0	32636	
6148	0	32682	
6149	0	32768	
6150	0	32728	
6151	0	32825	
6152	0	32776	
6153	0	32798	
6154	0	32796	
6155	0	32740	
6156	0	32868	
6157	0	32845	
6158	0	32817	
6159	0	32852	
6160	0	32852	
6161	0	32812	
6162	0	32760	
6163	0	32836	
6164	0	32784	
6165	0	32740	
6166	0	32648	
6167	0	32668	
6168	0	32652	
6169	0	32748	
6170	0	32692	
6171	0	32796	
6172	0	32774	
6173	0	32784	
6174	0	32722	
6175	0	32764	
6176	0	33068	
6177	0	32848	
6178	0	32864	
6179	0	32932	
6180	0	32856	
6181	0	32788	
6182	0	32720	
6183	0	32668	
6184	0	32672	
6185	0	32656	
6186	0	32752	
6187	0	32780	
6188	0	32801	
6189	0	32724	
6190	0	32828	
6191	0	32820	
6192	0	32764	
6193	0	32718	
6194	0	32740	
6195	0	32836	
6196	0	32868	
6197	0	32684	
6198	0	32713	
6199	0	32856	
6200	0	32897	
6201	0	32814	
6202	0	32672	
6203	0	32620	
6204	0	32656	
6205	0	33190	
6206	0	33160	
6207	0	32584	
6208	0	32689	
6209	0	32896	
6210	0	32640	
6211	0	32620	
6212	0	32732	
6213	0	32756	
6214	0	32680	
6215	0	32764	
6216	0	32746	
6217	0	32812	
6218	0	32812	
6219	0	32852	
6220	0	32794	
6221	0	32740	
6222	0	32844	
6223	0	32905	
6224	0	32672	
6225	0	32636	
6226	0	32816	
6227	0	32680	
6228	0	32796	
6229	0	32664	
6230	0	32686	
6231	0	32684	
6232	0	32738	
6233	0	32828	
6234	0	32840	
6235	0	32804	
6236	0	32853	
6237	0	32826	
6238	0	32972	
6239	0	32864	
6240	0	32684	
6241	0	32772	
6242	0	32800	
6243	0	32692	
6244	0	32736	
6245	0	32668	
6246	0	32736	
6247	0	32732	
6248	0	32788	
6249	0	32720	
6250	0	32716	
6251	0	32760	
6252	0	32836	
6253	0	32928	
6254	0	32909	
6255	0	32789	
6256	0	32788	
6257	0	32804	
6258	0	32820	
6259	0	32776	
6260	0	32764	
6261	0	32832	
6262	0	32812	
6263	0	32797	
6264	0	32852	
6265	0	32680	
6266	0	32708	
6267	0	32724	
6268	0	32680	
6269	0	32776	
6270	0	32704	
6271	0	32709	
6272	0	32741	
6273	0	32756	
6274	0	32768	
6275	0	32748	
6276	0	32701	
6277	0	32904	
6278	0	32856	
6279	0	32836	
6280	0	32976	
6281	0	32932	
6282	0	33044	
6283	0	32908	
6284	0	32773	
6285	0	32716	
6286	0	32781	
6287	0	32798	
6288	0	32562	
6289	0	32648	
6290	0	32712	
6291	0	32768	
6292	0	32740	
6293	0	32792	
6294	0	32782	
6295	0	32766	
6296	0	32796	
6297	0	32736	
6298	0	32764	
6299	0	32945	
6300	0	32884	
6301	0	32916	
6302	0	32665	
6303	0	32780	
6304	0	32785	
6305	0	32708	
6306	0	32789	
6307	0	32784	
6308	0	32616	
6309	0	32616	
6310	0	32772	
6311	0	32708	
6312	0	32738	
6313	0	33205	
6314	0	32846	
6315	0	32973	
6316	0	32908	
6317	0	32832	
6318	0	32824	
6319	0	32854	
6320	0	32836	
6321	0	32764	
6322	0	32708	
6323	0	32676	
6324	0	32624	
6325	0	32656	
6326	0	32716	
6327	0	32760	
6328	0	32600	
6329	0	32832	
6330	0	32736	
6331	0	32712	
6332	0	32901	
6333	0	32824	
6334	0	32756	
6335	0	32692	
6336	0	32686	
6337	0	32840	
6338	0	32813	
6339	0	33004	
6340	0	32980	
6341	0	32740	
6342	0	32896	
6343	0	32766	
6344	0	32692	
6345	0	32748	
6346	0	32724	
6347	0	32664	
6348	0	32752	
6349	0	32828	
6350	0	32760	
6351	0	32676	
6352	0	32692	
6353	0	32909	
6354	0	32848	
6355	0	32844	
6356	0	32840	
6357	0	32760	
6358	0	32852	
6359	0	32789	
6360	0	32820	
6361	0	32804	
6362	0	32772	
6363	0	32775	
6364	0	32700	
6365	0	32724	
6366	0	32656	
6367	0	32644	
6368	0	32748	
6369	0	32828	
6370	0	32840	
6371	0	32772	
6372	0	32764	
6373	0	32796	
6374	0	32784	
6375	0	32704	
6376	0	32892	
6377	0	32904	
6378	0	32744	
6379	0	33100	
6380	0	32900	
6381	0	32768	
6382	0	32728	
6383	0	32694	
6384	0	32676	
6385	0	32785	
6386	0	32724	
6387	0	32580	
6388	0	32568	
6389	0	32812	
6390	0	32868	
6391	0	32912	
6392	0	32780	
6393	0	32740	
6394	0	32772	
6395	0	32764	
6396	0	32784	
6397	0	32852	
6398	0	32804	
6399	0	32842	
6400	0	32841	
6401	0	32840	
6402	0	32772	
6403	0	32704	
6404	0	32708	
6405	0	32676	
6406	0	32724	
6407	0	32728	
6408	0	32722	
6409	0	32696	
6410	0	32697	
6411	0	32760	
6412	0	32744	
6413	0	32788	
6414	0	32892	
6415	0	32908	
6416	0	32840	
6417	0	32946	
6418	0	32964	
6419	0	32684	
6420	0	32676	
6421	0	32716	
6422	0	32945	
6423	0	32940	
6424	0	32812	
6425	0	32728	
6426	0	32560	
6427	0	32612	
6428	0	32756	
6429	0	32698	
6430	0	32760	
6431	0	32828	
6432	0	32736	
6433	0	32764	
6434	0	32768	
6435	0	32824	
6436	0	32848	
6437	0	32716	
6438	0	32816	
6439	0	32868	
6440	0	32924	
6441	0	32744	
6442	0	32700	
6443	0	32726	
6444	0	32720	
6445	0	32696	
6446	0	32816	
6447	0	32800	
6448	0	32798	
6449	0	32704	
6450	0	32756	
6451	0	32796	
6452	0	32884	
6453	0	32780	
6454	0	32725	
6455	0	32728	
6456	0	32808	
6457	0	32689	
6458	0	32660	
6459	0	32676	
6460	0	32788	
6461	0	33086	
6462	0	33077	
6463	0	32680	
6464	0	32720	
6465	0	32764	
6466	0	32752	
6467	0	32721	
6468	0	32772	
6469	0	32804	
6470	0	32836	
6471	0	32672	
6472	0	32622	
6473	0	32730	
6474	0	32852	
6475	0	32844	
6476	0	32796	
6477	0	32860	
6478	0	32860	
6479	0	32748	
6480	0	32772	
6481	0	32836	
6482	0	32904	
6483	0	32804	
6484	0	32700	
6485	0	32724	
6486	0	32688	
6487	0	32724	
6488	0	32736	
6489	0	32736	
6490	0	32772	
6491	0	32832	
6492	0	32864	
6493	0	32788	
6494	0	32796	
6495	0	32808	
6496	0	32852	
6497	0	32870	
6498	0	32886	
6499	0	32829	
6500	0	32852	
6501	0	32956	
6502	0	32904	
6503	0	32760	
6504	0	32637	
6505	0	32678	
6506	0	32693	
6507	0	32744	
6508	0	32676	
6509	0	32705	
6510	0	32708	
6511	0	32688	
6512	0	32730	
6513	0	32744	
6514	0	32744	
6515	0	32700	
6516	0	32776	
6517	0	32865	
6518	0	32790	
6519	0	32856	
6520	0	32804	
6521	0	32864	
6522	0	32944	
6523	0	32834	
6524	0	32852	
6525	0	32804	
6526	0	32772	
6527	0	32780	
6528	0	32688	
6529	0	32757	
6530	0	32760	
6531	0	32692	
6532	0	32684	
6533	0	32790	
6534	0	32720	
6535	0	32825	
6536	0	32784	
6537	0	32756	
6538	0	32804	
6539	0	32892	
6540	0	32808	
6541	0	32760	
6542	0	32752	
6543	0	32668	
6544	0	32716	
6545	0	32668	
6546	0	32684	
6547	0	32578	
6548	0	32604	
6549	0	32660	
6550	0	32596	
6551	0	32632	
6552	0	32680	
6553	0	32788	
6554	0	32884	
6555	0	32957	
6556	0	32960	
6557	0	33112	
6558	0	33132	
6559	0	33116	
6560	0	32941	
6561	0	33088	
6562	0	32952	
6563	0	32845	
6564	0	32788	
6565	0	32692	
6566	0	32624	
6567	0	32588	
6568	0	32616	
6569	0	32652	
6570	0	32588	
6571	0	32796	
6572	0	32736	
6573	0	32664	
6574	0	32668	
6575	0	32704	
6576	0	32696	
6577	0	32808	
6578	0	32960	
6579	0	32812	
6580	0	32886	
6581	0	32896	
6582	0	32848	
6583	0	32828	
6584	0	32780	
6585	0	32638	
6586	0	32732	
6587	0	32652	
6588	0	32670	
6589	0	32804	
6590	0	32848	
6591	0	32737	
6592	0	32720	
6593	0	32693	
6594	0	32712	
6595	0	32724	
6596	0	32780	
6597	0	32812	
6598	0	32832	
6599	0	32845	
6600	0	32862	
6601	0	33024	
6602	0	32968	
6603	0	32726	
6604	0	32688	
6605	0	32652	
6606	0	32724	
6607	0	32761	
6608	0	32720	
6609	0	32799	
6610	0	32788	
6611	0	32766	
6612	0	32744	
6613	0	32752	
6614	0	32821	
6615	0	32780	
6616	0	32856	
6617	0	32800	
6618	0	32768	
6619	0	32784	
6620	0	32804	
6621	0	32628	
6622	0	32732	
6623	0	32980	
6624	0	32984	
6625	0	32757	
6626	0	32676	
6627	0	32712	
6628	0	32752	
6629	0	32772	
6630	0	32744	
6631	0	32628	
6632	0	32692	
6633	0	32789	
6634	0	32720	
6635	0	32756	
6636	0	32785	
6637	0	32754	
6638	0	32940	
6639	0	32946	
6640	0	32829	
6641	0	32772	
6642	0	32772	
6643	0	32752	
6644	0	32904	
6645	0	32800	
6646	0	32769	
6647	0	32688	
6648	0	32712	
6649	0	32670	
6650	0	32684	
6651	0	32701	
6652	0	32840	
6653	0	32780	
6654	0	32728	
6655	0	32732	
6656	0	32840	
6657	0	32814	
6658	0	32860	
6659	0	32860	
6660	0	32880	
6661	0	32808	
6662	0	32844	
6663	0	32848	
6664	0	32604	
6665	0	32588	
6666	0	32668	
6667	0	32645	
6668	0	32549	
6669	0	32672	
6670	0	32852	
6671	0	32784	
6672	0	32868	
6673	0	32824	
6674	0	32820	
6675	0	32924	
6676	0	32884	
6677	0	32992	
6678	0	33080	
6679	0	32904	
6680	0	32893	
6681	0	32844	
6682	0	32808	
6683	0	32588	
6684	0	32528	
6685	0	32592	
6686	0	32672	
6687	0	32724	
6688	0	32720	
6689	0	32629	
6690	0	32524	
6691	0	32604	
6692	0	32484	
6693	0	32484	
6694	0	32652	
6695	0	32746	
6696	0	32821	
6697	0	32984	
6698	0	33100	
6699	0	33120	
6700	0	33152	
6701	0	33224	
6702	0	33213	
6703	0	33156	
6704	0	33228	
6705	0	33077	
6706	0	33060	
6707	0	32752	
6708	0	32632	
6709	0	32396	
6710	0	32452	
6711	0	32332	
6712	0	32484	
6713	0	32526	
6714	0	32613	
6715	0	32617	
6716	0	32669	
6717	0	32668	
6718	0	32852	
6719	0	32864	
6720	0	32872	
6721	0	32940	
6722	0	32769	
6723	0	32772	
6724	0	32768	
6725	0	32892	
6726	0	32752	
6727	0	32704	
6728	0	32672	
6729	0	32688	
6730	0	32756	
6731	0	32668	
6732	0	32652	
6733	0	32736	
6734	0	32896	
6735	0	32862	
6736	0	32776	
6737	0	32924	
6738	0	32701	
6739	0	32769	
6740	0	32812	
6741	0	32764	
6742	0	32910	
6743	0	32832	
6744	0	32766	
6745	0	32688	
6746	0	32742	
6747	0	32727	
6748	0	32745	
6749	0	32780	
6750	0	32728	
6751	0	32740	
6752	0	32720	
6753	0	32736	
6754	0	32796	
6755	0	32750	
6756	0	32852	
6757	0	32830	
6758	0	32892	
6759	0	32868	
6760	0	32952	
6761	0	32872	
6762	0	32780	
6763	0	32774	
6764	0	32817	
6765	0	32761	
6766	0	32677	
6767	0	32704	
6768	0	32748	
6769	0	32632	
6770	0	32665	
6771	0	32732	
6772	0	32781	
6773	0	32798	
6774	0	32692	
6775	0	32756	
6776	0	32832	
6777	0	32920	
6778	0	32912	
6779	0	32753	
6780	0	32888	
6781	0	32837	
6782	0	32729	
6783	0	32920	
6784	0	32892	
6785	0	32752	
6786	0	32832	
6787	0	32845	
6788	0	32904	
6789	0	32668	
6790	0	32596	
6791	0	32604	
6792	0	32622	
6793	0	32740	
6794	0	32754	
6795	0	32740	
6796	0	32972	
6797	0	33020	
6798	0	32760	
6799	0	32721	
6800	0	32692	
6801	0	32702	
6802	0	32612	
6803	0	32764	
6804	0	32764	
6805	0	32865	
6806	0	32820	
6807	0	32892	
6808	0	32756	
6809	0	32696	
6810	0	32748	
6811	0	32724	
6812	0	32798	
6813	0	32924	
6814	0	32884	
6815	0	32800	
6816	0	32804	
6817	0	32768	
6818	0	32832	
6819	0	32844	
6820	0	32804	
6821	0	32824	
6822	0	32884	
6823	0	32732	
6824	0	32740	
6825	0	32676	
6826	0	32621	
6827	0	32632	
6828	0	32624	
6829	0	32733	
6830	0	32688	
6831	0	32704	
6832	0	32780	
6833	0	32781	
6834	0	32863	
6835	0	32852	
6836	0	32844	
6837	0	32904	
6838	0	32864	
6839	0	32932	
6840	0	33004	
6841	0	32800	
6842	0	32598	
6843	0	32592	
6844	0	32644	
6845	0	32780	
6846	0	32916	
6847	0	32876	
6848	0	33040	
6849	0	32688	
6850	0	32622	
6851	0	32588	
6852	0	32664	
6853	0	32752	
6854	0	32740	
6855	0	32760	
6856	0	32781	
6857	0	32870	
6858	0	32774	
6859	0	32816	
6860	0	32830	
6861	0	32912	
6862	0	32804	
6863	0	32782	
6864	0	32748	
6865	0	32644	
6866	0	32672	
6867	0	32850	
6868	0	32801	
6869	0	32729	
6870	0	32776	
6871	0	32732	
6872	0	32728	
6873	0	32784	
6874	0	32844	
6875	0	32892	
6876	0	32844	
6877	0	32784	
6878	0	32844	
6879	0	32792	
6880	0	32780	
6881	0	32800	
6882	0	32764	
6883	0	32704	
6884	0	32784	
6885	0	32777	
6886	0	32752	
6887	0	32665	
6888	0	32768	
6889	0	32752	
6890	0	32720	
6891	0	32760	
6892	0	32753	
6893	0	32796	
6894	0	32892	
6895	0	32856	
6896	0	32760	
6897	0	32852	
6898	0	32836	
6899	0	32856	
6900	0	32788	
6901	0	32788	
6902	0	32732	
6903	0	32788	
6904	0	32796	
6905	0	32801	
6906	0	32720	
6907	0	32724	
6908	0	32640	
6909	0	32692	
6910	0	32656	
6911	0	32732	
6912	0	32780	
6913	0	32840	
6914	0	32788	
6915	0	32806	
6916	0	32852	
6917	0	32784	
6918	0	32964	
6919	0	32998	
6920	0	32792	
6921	0	32897	
6922	0	32661	
6923	0	32776	
6924	0	32716	
6925	0	32732	
6926	0	32669	
6927	0	32712	
6928	0	32677	
6929	0	32692	
6930	0	32744	
6931	0	32774	
6932	0	32762	
6933	0	32693	
6934	0	32756	
6935	0	32792	
6936	0	32804	
6937	0	32840	
6938	0	32925	
6939	0	32844	
6940	0	32860	
6941	0	32845	
6942	0	32838	
6943	0	32804	
6944	0	32815	
6945	0	32806	
6946	0	32753	
6947	0	32661	
6948	0	32660	
6949	0	32696	
6950	0	32700	
6951	0	32696	
6952	0	32702	
6953	0	32808	
6954	0	32860	
6955	0	32824	
6956	0	32896	
6957	0	32864	
6958	0	32900	
6959	0	32892	
6960	0	32892	
6961	0	32817	
6962	0	32968	
6963	0	32800	
6964	0	32625	
6965	0	32604	
6966	0	32748	
6967	0	32752	
6968	0	32796	
6969	0	32788	
6970	0	32696	
6971	0	32684	
6972	0	32832	
6973	0	32737	
6974	0	32824	
6975	0	32828	
6976	0	32780	
6977	0	32804	
6978	0	32845	
6979	0	32820	
6980	0	32796	
6981	0	32836	
6982	0	32784	
6983	0	32757	
6984	0	32868	
6985	0	32782	
6986	0	32684	
6987	0	32740	
6988	0	32660	
6989	0	32724	
6990	0	32700	
6991	0	32860	
6992	0	32745	
6993	0	32705	
6994	0	32793	
6995	0	32792	
6996	0	32736	
6997	0	32832	
6998	0	32832	
6999	0	32860	
7000	0	32864	
7001	0	32830	
7002	0	32828	
7003	0	32796	
7004	0	32689	
7005	0	32692	
7006	0	32736	
7007	0	32809	
7008	0	32744	
7009	0	32828	
7010	0	32848	
7011	0	32656	
7012	0	32744	
7013	0	32772	
7014	0	32816	
7015	0	32728	
7016	0	32728	
7017	0	32780	
7018	0	32876	
7019	0	32840	
7020	0	32832	
7021	0	32852	
7022	0	32780	
7023	0	32732	
7024	0	32824	
7025	0	32770	
7026	0	32724	
7027	0	32604	
7028	0	32837	
7029	0	32720	
7030	0	32704	
7031	0	32688	
7032	0	32808	
7033	0	32820	
7034	0	32732	
7035	0	32768	
7036	0	32812	
7037	0	32861	
7038	0	32774	
7039	0	32812	
7040	0	32885	
7041	0	32836	
7042	0	32804	
7043	0	32788	
7044	0	32724	
7045	0	32728	
7046	0	32712	
7047	0	32712	
7048	0	32740	
7049	0	32748	
7050	0	32660	
7051	0	32726	
7052	0	32708	
7053	0	32800	
7054	0	32864	
7055	0	32904	
7056	0	32848	
7057	0	32798	
7058	0	32844	
7059	0	32920	
7060	0	32744	
7061	0	32820	
7062	0	32812	
7063	0	32815	
7064	0	32802	
7065	0	32769	
7066	0	32700	
7067	0	32694	
7068	0	32736	
7069	0	32676	
7070	0	32664	
7071	0	32732	
7072	0	32752	
7073	0	32808	
7074	0	32764	
7075	0	32812	
7076	0	32728	
7077	0	33020	
7078	0	32865	
7079	0	32772	
7080	0	32840	
7081	0	32777	
7082	0	32856	
7083	0	32820	
7084	0	32764	
7085	0	32740	
7086	0	32780	
7087	0	32732	
7088	0	32741	
7089	0	32692	
7090	0	32824	
7091	0	32720	
7092	0	32766	
7093	0	32820	
7094	0	32760	
7095	0	32780	
7096	0	32808	
7097	0	32860	
7098	0	32860	
7099	0	32737	
7100	0	32829	
7101	0	32845	
7102	0	32788	
7103	0	32800	
7104	0	32788	
7105	0	32660	
7106	0	32716	
7107	0	32694	
7108	0	32640	
7109	0	32752	
7110	0	32932	
7111	0	32908	
7112	0	32753	
7113	0	32756	
7114	0	32872	
7115	0	32832	
7116	0	32812	
7117	0	32900	
7118	0	32800	
7119	0	32788	
7120	0	32880	
7121	0	32801	
7122	0	32738	
7123	0	32764	
7124	0	32704	
7125	0	32708	
7126	0	32746	
7127	0	32736	
7128	0	32696	
7129	0	32740	
7130	0	32692	
7131	0	32784	
7132	0	32768	
7133	0	32760	
7134	0	32780	
7135	0	32756	
7136	0	32792	
7137	0	32848	
7138	0	32828	
7139	0	32829	
7140	0	32828	
7141	0	32836	
7142	0	32808	
7143	0	32740	
7144	0	32680	
7145	0	32861	
7146	0	32814	
7147	0	32724	
7148	0	32708	
7149	0	32752	
7150	0	32848	
7151	0	32824	
7152	0	32706	
7153	0	32724	
7154	0	32724	
7155	0	32828	
7156	0	32872	
7157	0	32894	
7158	0	32816	
7159	0	32804	
7160	0	32832	
7161	0	32800	
7162	0	32820	
7163	0	32772	
7164	0	32692	
7165	0	32770	
7166	0	32764	
7167	0	32764	
7168	0	32712	
7169	0	32748	
7170	0	32664	
7171	0	32694	
7172	0	32756	
7173	0	32774	
7174	0	32812	
7175	0	32822	
7176	0	32808	
7177	0	32805	
7178	0	32824	
7179	0	32872	
7180	0	32856	
7181	0	32800	
7182	0	32836	
7183	0	32844	
7184	0	32710	
7185	0	32760	
7186	0	32734	
7187	0	32724	
7188	0	32680	
7189	0	32729	
7190	0	32688	
7191	0	32676	
7192	0	32738	
7193	0	32832	
7194	0	32805	
7195	0	32816	
7196	0	32828	
7197	0	32838	
7198	0	32832	
7199	0	32924	
7200	0	32980	
7201	0	32884	
7202	0	32740	
7203	0	32724	
7204	0	32655	
7205	0	32788	
7206	0	32788	
7207	0	32624	
7208	0	32724	
7209	0	32960	
7210	0	32796	
7211	0	32692	
7212	0	32700	
7213	0	32748	
7214	0	32792	
7215	0	32774	
7216	0	32796	
7217	0	32860	
7218	0	32794	
7219	0	32828	
7220	0	32878	
7221	0	32828	
7222	0	32756	
7223	0	32694	
7224	0	32752	
7225	0	32804	
7226	0	32740	
7227	0	32716	
7228	0	32676	
7229	0	32682	
7230	0	32820	
7231	0	32841	
7232	0	32917	
7233	0	32865	
7234	0	32697	
7235	0	32698	
7236	0	32676	
7237	0	32720	
7238	0	32631	
7239	0	32856	
7240	0	33284	
7241	0	33060	
7242	0	32756	
7243	0	32650	
7244	0	32713	
7245	0	32672	
7246	0	32704	
7247	0	32804	
7248	0	32762	
7249	0	32671	
7250	0	32662	
7251	0	32732	
7252	0	32832	
7253	0	32728	
7254	0	32685	
7255	0	32768	
7256	0	32804	
7257	0	32876	
7258	0	32816	
7259	0	32801	
7260	0	32896	
7261	0	32872	
7262	0	32810	
7263	0	32768	
7264	0	32748	
7265	0	32772	
7266	0	32732	
7267	0	32712	
7268	0	32670	
7269	0	32702	
7270	0	32748	
7271	0	32705	
7272	0	32740	
7273	0	32772	
7274	0	32834	
7275	0	32948	
7276	0	32884	
7277	0	32860	
7278	0	32812	
7279	0	32824	
7280	0	32888	
7281	0	32848	
7282	0	32736	
7283	0	32704	
7284	0	32764	
7285	0	32696	
7286	0	32824	
7287	0	32812	
7288	0	32800	
7289	0	32796	
7290	0	32764	
7291	0	32644	
7292	0	32724	
7293	0	32808	
7294	0	32704	
7295	0	32804	
7296	0	32804	
7297	0	32822	
7298	0	32824	
7299	0	32876	
7300	0	32884	
7301	0	32876	
7302	0	32796	
7303	0	32780	
7304	0	32762	
7305	0	32688	
7306	0	32720	
7307	0	32752	
7308	0	32764	
7309	0	32796	
7310	0	32680	
7311	0	32680	
7312	0	32708	
7313	0	32775	
7314	0	32794	
7315	0	32788	
7316	0	32796	
7317	0	32828	
7318	0	32798	
7319	0	32912	
7320	0	32896	
7321	0	32856	
7322	0	32817	
7323	0	32774	
7324	0	32748	
7325	0	32732	
7326	0	32828	
7327	0	32766	
7328	0	32696	
7329	0	32812	
7330	0	32716	
7331	0	32716	
7332	0	32696	
7333	0	32776	
7334	0	32800	
7335	0	32784	
7336	0	32820	
7337	0	32800	
7338	0	32869	
7339	0	32800	
7340	0	32884	
7341	0	32836	
7342	0	32868	
7343	0	32768	
7344	0	32756	
7345	0	32754	
7346	0	32753	
7347	0	32733	
7348	0	32740	
7349	0	32721	
7350	0	32660	
7351	0	32784	
7352	0	32796	
7353	0	32735	
7354	0	32780	
7355	0	32829	
7356	0	32772	
7357	0	32832	
7358	0	32836	
7359	0	32804	
7360	0	32780	
7361	0	32796	
7362	0	32893	
7363	0	32796	
7364	0	32740	
7365	0	32932	
7366	0	32848	
7367	0	32624	
7368	0	32548	
7369	0	32544	
7370	0	32636	
7371	0	32744	
7372	0	32880	
7373	0	32836	
7374	0	32840	
7375	0	32826	
7376	0	32752	
7377	0	32844	
7378	0	32902	
7379	0	32812	
7380	0	32820	
7381	0	32796	
7382	0	32792	
7383	0	32821	
7384	0	32869	
7385	0	32732	
7386	0	32801	
7387	0	32896	
7388	0	32772	
7389	0	32704	
7390	0	32576	
7391	0	32676	
7392	0	32840	
7393	0	32708	
7394	0	32725	
7395	0	32928	
7396	0	32820	
7397	0	32825	
7398	0	32828	
7399	0	32780	
7400	0	32748	
7401	0	32800	
7402	0	32870	
7403	0	32812	
7404	0	32772	
7405	0	32812	
7406	0	32768	
7407	0	32752	
7408	0	32728	
7409	0	32688	
7410	0	32700	
7411	0	32680	
7412	0	32742	
7413	0	32724	
7414	0	32749	
7415	0	32884	
7416	0	32828	
7417	0	32817	
7418	0	32800	
7419	0	32848	
7420	0	32848	
7421	0	32824	
7422	0	32775	
7423	0	32826	
7424	0	32800	
7425	0	32768	
7426	0	32736	
7427	0	32720	
7428	0	32708	
7429	0	32768	
7430	0	32708	
7431	0	32700	
7432	0	32694	
7433	0	32736	
7434	0	32776	
7435	0	32808	
7436	0	32852	
7437	0	32856	
7438	0	32868	
7439	0	32780	
7440	0	32852	
7441	0	32909	
7442	0	32800	
7443	0	32736	
7444	0	32756	
7445	0	32784	
7446	0	32796	
7447	0	32768	
7448	0	32688	
7449	0	32704	
7450	0	32684	
7451	0	32712	
7452	0	32736	
7453	0	32772	
7454	0	32704	
7455	0	32856	
7456	0	32860	
7457	0	32920	
7458	0	32820	
7459	0	32846	
7460	0	32784	
7461	0	32876	
7462	0	32833	
7463	0	32776	
7464	0	32808	
7465	0	32776	
7466	0	32772	
7467	0	32796	
7468	0	32708	
7469	0	32660	
7470	0	32708	
7471	0	32756	
7472	0	32769	
7473	0	32756	
7474	0	32816	
7475	0	32792	
7476	0	32820	
7477	0	32800	
7478	0	32832	
7479	0	32952	
7480	0	32944	
7481	0	32809	
7482	0	32756	
7483	0	32752	
7484	0	32740	
7485	0	32718	
7486	0	32759	
7487	0	32854	
7488	0	32716	
7489	0	32710	
7490	0	32740	
7491	0	32705	
7492	0	32724	
7493	0	32804	
7494	0	32704	
7495	0	32722	
7496	0	32772	
7497	0	32836	
7498	0	32948	
7499	0	32876	
7500	0	32836	
7501	0	32777	
7502	0	32800	
7503	0	32828	
7504	0	32796	
7505	0	32728	
7506	0	32748	
7507	0	32688	
7508	0	32752	
7509	0	32792	
7510	0	32777	
7511	0	32757	
7512	0	32756	
7513	0	32728	
7514	0	32796	
7515	0	32804	
7516	0	32848	
7517	0	32836	
7518	0	32836	
7519	0	32846	
7520	0	32848	
7521	0	32836	
7522	0	32768	
7523	0	32781	
7524	0	32756	
7525	0	32701	
7526	0	32809	
7527	0	32928	
7528	0	32762	
7529	0	32664	
7530	0	32740	
7531	0	32778	
7532	0	32724	
7533	0	32672	
7534	0	32720	
7535	0	32784	
7536	0	32744	
7537	0	32804	
7538	0	32849	
7539	0	32836	
7540	0	32868	
7541	0	32864	
7542	0	32796	
7543	0	32789	
7544	0	32756	
7545	0	32744	
7546	0	32725	
7547	0	32708	
7548	0	32672	
7549	0	32784	
7550	0	32768	
7551	0	32720	
7552	0	32764	
7553	0	32764	
7554	0	32760	
7555	0	32844	
7556	0	32758	
7557	0	32834	
7558	0	32864	
7559	0	32836	
7560	0	32919	
7561	0	32825	
7562	0	32856	
7563	0	32796	
7564	0	32734	
7565	0	32740	
7566	0	32736	
7567	0	32736	
7568	0	32732	
7569	0	32720	
7570	0	32680	
7571	0	32734	
7572	0	32734	
7573	0	32762	
7574	0	32740	
7575	0	32852	
7576	0	32912	
7577	0	32772	
7578	0	32744	
7579	0	32773	
7580	0	32956	
7581	0	32964	
7582	0	32888	
7583	0	32860	
7584	0	32656	
7585	0	32724	
7586	0	32705	
7587	0	32652	
7588	0	32804	
7589	0	32760	
7590	0	32676	
7591	0	32713	
7592	0	32782	
7593	0	32740	
7594	0	32869	
7595	0	32864	
7596	0	32736	
7597	0	32768	
7598	0	32884	
7599	0	32801	
7600	0	32796	
7601	0	32848	
7602	0	32780	
7603	0	32832	
7604	0	32800	
7605	0	32792	
7606	0	32684	
7607	0	32784	
7608	0	32684	
7609	0	32756	
7610	0	32652	
7611	0	32664	
7612	0	32752	
7613	0	32756	
7614	0	32780	
7615	0	32800	
7616	0	32812	
7617	0	32768	
7618	0	32836	
7619	0	32860	
7620	0	32828	
7621	0	32758	
7622	0	32780	
7623	0	32729	
7624	0	32704	
7625	0	32956	
7626	0	32928	
7627	0	32664	
7628	0	32812	
7629	0	32752	
7630	0	32616	
7631	0	32822	
7632	0	32709	
7633	0	32669	
7634	0	32686	
7635	0	32788	
7636	0	32740	
7637	0	32832	
7638	0	32828	
7639	0	32838	
7640	0	32856	
7641	0	32784	
7642	0	32820	
7643	0	32832	
7644	0	32764	
7645	0	32852	
7646	0	32808	
7647	0	32645	
7648	0	32632	
7649	0	32788	
7650	0	32752	
7651	0	32720	
7652	0	32724	
7653	0	32720	
7654	0	32865	
7655	0	32804	
7656	0	32772	
7657	0	32776	
7658	0	32856	
7659	0	32846	
7660	0	32888	
7661	0	32917	
7662	0	32840	
7663	0	32812	
7664	0	32824	
7665	0	32680	
7666	0	32620	
7667	0	32664	
7668	0	32696	
7669	0	32740	
7670	0	32720	
7671	0	32684	
7672	0	32696	
7673	0	32700	
7674	0	32844	
7675	0	32936	
7676	0	32860	
7677	0	32832	
7678	0	32865	
7679	0	32868	
7680	0	32860	
7681	0	32808	
7682	0	32816	
7683	0	32780	
7684	0	32776	
7685	0	32700	
7686	0	32696	
7687	0	32742	
7688	0	32692	
7689	0	32709	
7690	0	32760	
7691	0	32708	
7692	0	32768	
7693	0	32772	
7694	0	32824	
7695	0	32812	
7696	0	32776	
7697	0	32804	
7698	0	32861	
7699	0	32852	
7700	0	32904	
7701	0	32836	
7702	0	32800	
7703	0	32857	
7704	0	32744	
7705	0	32742	
7706	0	32768	
7707	0	32772	
7708	0	32688	
7709	0	32728	
7710	0	32648	
7711	0	32733	
7712	0	32744	
7713	0	32764	
7714	0	32829	
7715	0	32781	
7716	0	32808	
7717	0	32868	
7718	0	32880	
7719	0	32796	
7720	0	32784	
7721	0	32852	
7722	0	32812	
7723	0	32780	
7724	0	32756	
7725	0	32772	
7726	0	32713	
7727	0	32732	
7728	0	32748	
7729	0	32660	
7730	0	32804	
7731	0	32736	
7732	0	32724	
7733	0	32752	
7734	0	32740	
7735	0	32804	
7736	0	32812	
7737	0	32796	
7738	0	32761	
7739	0	32852	
7740	0	32797	
7741	0	32856	
7742	0	32884	
7743	0	32844	
7744	0	32728	
7745	0	32696	
7746	0	32700	
7747	0	32708	
7748	0	32720	
7749	0	32700	
7750	0	32748	
7751	0	32704	
7752	0	32724	
7753	0	32764	
7754	0	32788	
7755	0	32832	
7756	0	32856	
7757	0	32728	
7758	0	32892	
7759	0	32868	
7760	0	32784	
7761	0	32822	
7762	0	32854	
7763	0	32816	
7764	0	32796	
7765	0	32756	
7766	0	32736	
7767	0	32757	
7768	0	32732	
7769	0	32712	
7770	0	32728	
7771	0	32758	
7772	0	32724	
7773	0	32753	
7774	0	32808	
7775	0	32832	
7776	0	32784	
7777	0	32788	
7778	0	32840	
7779	0	32773	
7780	0	32777	
7781	0	32866	
7782	0	32880	
7783	0	32881	
7784	0	32762	
7785	0	32760	
7786	0	32612	
7787	0	32756	
7788	0	32760	
7789	0	32748	
7790	0	32740	
7791	0	32804	
7792	0	32724	
7793	0	32748	
7794	0	32708	
7795	0	32780	
7796	0	32765	
7797	0	32772	
7798	0	32837	
7799	0	32964	
7800	0	32920	
7801	0	32798	
7802	0	32972	
7803	0	32876	
7804	0	32728	
7805	0	32716	
7806	0	32756	
7807	0	32676	
7808	0	32612	
7809	0	32676	
7810	0	32702	
7811	0	32664	
7812	0	32720	
7813	0	32704	
7814	0	32728	
7815	0	32824	
7816	0	32888	
7817	0	32864	
7818	0	32800	
7819	0	32808	
7820	0	32836	
7821	0	32868	
7822	0	32832	
7823	0	32832	
7824	0	32736	
7825	0	32752	
7826	0	32828	
7827	0	32704	
7828	0	32701	
7829	0	32698	
7830	0	32736	
7831	0	32644	
7832	0	32720	
7833	0	32732	
7834	0	32736	
7835	0	32820	
7836	0	32830	
7837	0	32832	
7838	0	32856	
7839	0	32800	
7840	0	32912	
7841	0	32852	
7842	0	32821	
7843	0	32772	
7844	0	32790	
7845	0	32740	
7846	0	32709	
7847	0	32708	
7848	0	32748	
7849	0	32728	
7850	0	32728	
7851	0	32712	
7852	0	32748	
7853	0	32740	
7854	0	32812	
7855	0	32819	
7856	0	32776	
7857	0	32828	
7858	0	32804	
7859	0	32836	
7860	0	32816	
7861	0	32776	
7862	0	32780	
7863	0	32832	
7864	0	32772	
7865	0	32736	
7866	0	32868	
7867	0	32896	
7868	0	32720	
7869	0	32708	
7870	0	32696	
7871	0	32660	
7872	0	32662	
7873	0	32668	
7874	0	32812	
7875	0	32820	
7876	0	32864	
7877	0	32912	
7878	0	32916	
7879	0	32832	
7880	0	32766	
7881	0	32856	
7882	0	32786	
7883	0	32796	
7884	0	32820	
7885	0	32784	
7886	0	32753	
7887	0	32696	
7888	0	32792	
7889	0	32768	
7890	0	32688	
7891	0	32816	
7892	0	32794	
7893	0	32768	
7894	0	32724	
7895	0	32760	
7896	0	32732	
7897	0	32844	
7898	0	32857	
7899	0	32832	
7900	0	32870	
7901	0	32896	
7902	0	32864	
7903	0	32824	
7904	0	32832	
7905	0	32704	
7906	0	32740	
7907	0	32760	
7908	0	32748	
7909	0	32824	
7910	0	32752	
7911	0	32704	
7912	0	32704	
7913	0	32704	
7914	0	32784	
7915	0	32828	
7916	0	32780	
7917	0	32724	
7918	0	32856	
7919	0	32926	
7920	0	32812	
7921	0	32768	
7922	0	32796	
7923	0	32804	
7924	0	32720	
7925	0	32760	
7926	0	32750	
7927	0	32668	
7928	0	32584	
7929	0	32645	
7930	0	32544	
7931	0	32660	
7932	0	32932	
7933	0	33116	
7934	0	32986	
7935	0	32752	
7936	0	32718	
7937	0	32765	
7938	0	32744	
7939	0	32737	
7940	0	32820	
7941	0	32796	
7942	0	32796	
7943	0	32796	
7944	0	32756	
7945	0	32712	
7946	0	32808	
7947	0	32820	
7948	0	32768	
7949	0	32692	
7950	0	32748	
7951	0	32744	
7952	0	32721	
7953	0	32800	
7954	0	32744	
7955	0	32832	
7956	0	32820	
7957	0	32780	
7958	0	32740	
7959	0	32760	
7960	0	32852	
7961	0	32808	
7962	0	32998	
7963	0	32832	
7964	0	32792	
7965	0	32685	
7966	0	32724	
7967	0	32748	
7968	0	32756	
7969	0	32718	
7970	0	32688	
7971	0	32744	
7972	0	32756	
7973	0	32785	
7974	0	32708	
7975	0	32828	
7976	0	32808	
7977	0	32820	
7978	0	32828	
7979	0	32916	
7980	0	32860	
7981	0	32796	
7982	0	32800	
7983	0	32804	
7984	0	32705	
7985	0	32828	
7986	0	32852	
7987	0	32792	
7988	0	32728	
7989	0	32636	
7990	0	32684	
7991	0	32752	
7992	0	32792	
7993	0	32752	
7994	0	32736	
7995	0	32780	
7996	0	32704	
7997	0	32744	
7998	0	32832	
7999	0	32860	
8000	0	32774	
8001	0	32772	
8002	0	32856	
8003	0	32844	
8004	0	32822	
8005	0	32768	
8006	0	32744	
8007	0	32700	
8008	0	32718	
8009	0	32782	
8010	0	32668	
8011	0	32732	
8012	0	32712	
8013	0	32728	
8014	0	32765	
8015	0	32720	
8016	0	32756	
8017	0	32820	
8018	0	32868	
8019	0	32844	
8020	0	32860	
8021	0	32844	
8022	0	32924	
8023	0	32752	
8024	0	32752	
8025	0	32708	
8026	0	32724	
8027	0	32724	
8028	0	32822	
8029	0	32842	
8030	0	32788	
8031	0	32664	
8032	0	32568	
8033	0	32932	
8034	0	32896	
8035	0	32728	
8036	0	32764	
8037	0	32856	
8038	0	32924	
8039	0	32860	
8040	0	32828	
8041	0	32760	
8042	0	32796	
8043	0	32832	
8044	0	32856	
8045	0	32720	
8046	0	32696	
8047	0	32680	
8048	0	32733	
8049	0	32764	
8050	0	32644	
8051	0	32636	
8052	0	32704	
8053	0	32732	
8054	0	32960	
8055	0	32892	
8056	0	32832	
8057	0	32796	
8058	0	32796	
8059	0	32812	
8060	0	32886	
8061	0	32888	
8062	0	32868	
8063	0	32760	
8064	0	32792	
8065	0	32725	
8066	0	32740	
8067	0	32808	
8068	0	32748	
8069	0	32652	
8070	0	32664	
8071	0	32652	
8072	0	32702	
8073	0	32724	
8074	0	32776	
8075	0	32792	
8076	0	32888	
8077	0	32864	
8078	0	32900	
8079	0	32820	
8080	0	32880	
8081	0	32884	
8082	0	32796	
8083	0	32748	
8084	0	32744	
8085	0	32740	
8086	0	32804	
8087	0	32708	
8088	0	32732	
8089	0	32652	
8090	0	32664	
8091	0	32688	
8092	0	32712	
8093	0	32756	
8094	0	32788	
8095	0	32776	
8096	0	32872	
8097	0	32824	
8098	0	32860	
8099	0	32816	
8100	0	32804	
8101	0	32880	
8102	0	32836	
8103	0	32856	
8104	0	32772	
8105	0	32816	
8106	0	32692	
8107	0	32629	
8108	0	32744	
8109	0	32636	
8110	0	32705	
8111	0	32788	
8112	0	32744	
8113	0	32652	
8114	0	32784	
8115	0	32812	
8116	0	32732	
8117	0	32792	
8118	0	32896	
8119	0	32852	
8120	0	32864	
8121	0	32812	
8122	0	32780	
8123	0	32788	
8124	0	32808	
8125	0	32756	
8126	0	32745	
8127	0	32740	
8128	0	32684	
8129	0	32741	
8130	0	32733	
8131	0	32752	
8132	0	32784	
8133	0	32797	
8134	0	32757	
8135	0	32773	
8136	0	32744	
8137	0	32808	
8138	0	32836	
8139	0	32868	
8140	0	32860	
8141	0	32820	
8142	0	32972	
8143	0	32816	
8144	0	32828	
8145	0	32692	
8146	0	32708	
8147	0	32700	
8148	0	32716	
8149	0	32748	
8150	0	32894	
8151	0	32700	
8152	0	32724	
8153	0	32792	
8154	0	32752	
8155	0	32840	
8156	0	32749	
8157	0	32808	
8158	0	32705	
8159	0	32836	
8160	0	32792	
8161	0	32712	
8162	0	32988	
8163	0	32985	
8164	0	32756	
8165	0	32804	
8166	0	32880	
8167	0	32748	
8168	0	32660	
8169	0	32617	
8170	0	32660	
8171	0	32633	
8172	0	32740	
8173	0	32876	
8174	0	32816	
8175	0	32744	
8176	0	32716	
8177	0	32782	
8178	0	32798	
8179	0	32873	
8180	0	32853	
8181	0	32896	
8182	0	32920	
8183	0	32716	
8184	0	32928	
8185	0	32804	
8186	0	32749	
8187	0	32644	
8188	0	32644	
8189	0	32637	
8190	0	32652	
8191	0	32764	
8192	0	32788	
8193	0	32812	
8194	0	32736	
8195	0	32840	
8196	0	32837	
8197	0	32792	
8198	0	32876	
8199	0	32880	
8200	0	32924	
8201	0	32808	
8202	0	32853	
8203	0	32780	
8204	0	32712	
8205	0	32732	
8206	0	32776	
8207	0	32720	
8208	0	32692	
8209	0	32725	
8210	0	32724	
8211	0	32717	
8212	0	32732	
8213	0	32716	
8214	0	32740	
8215	0	32760	
8216	0	32762	
8217	0	32848	
8218	0	32770	
8219	0	32877	
8220	0	32862	
8221	0	32848	
8222	0	32877	
8223	0	32889	
8224	0	32766	
8225	0	32752	
8226	0	32756	
8227	0	32745	
8228	0	32732	
8229	0	32712	
8230	0	32720	
8231	0	32736	
8232	0	32698	
8233	0	32777	
8234	0	32816	
8235	0	32812	
8236	0	32848	
8237	0	32798	
8238	0	32804	
8239	0	32856	
8240	0	32840	
8241	0	32816	
8242	0	32852	
8243	0	32808	
8244	0	32824	
8245	0	32712	
8246	0	32760	
8247	0	32724	
8248	0	32716	
8249	0	32696	
8250	0	32668	
8251	0	32706	
8252	0	32644	
8253	0	32800	
8254	0	32804	
8255	0	32740	
8256	0	32774	
8257	0	32824	
8258	0	32818	
8259	0	32884	
8260	0	32824	
8261	0	32848	
8262	0	32812	
8263	0	32897	
8264	0	32740	
8265	0	32832	
8266	0	32877	
8267	0	32734	
8268	0	32644	
8269	0	32616	
8270	0	32700	
8271	0	32728	
8272	0	32752	
8273	0	32680	
8274	0	32757	
8275	0	32885	
8276	0	32868	
8277	0	32844	
8278	0	32932	
8279	0	32872	
8280	0	32836	
8281	0	32780	
8282	0	32782	
8283	0	32732	
8284	0	32824	
8285	0	32748	
8286	0	32728	
8287	0	32724	
8288	0	32688	
8289	0	32720	
8290	0	32494	
8291	0	32684	
8292	0	33048	
8293	0	32856	
8294	0	32888	
8295	0	32996	
8296	0	32688	
8297	0	32549	
8298	0	32752	
8299	0	32869	
8300	0	32852	
8301	0	32812	
8302	0	32846	
8303	0	32854	
8304	0	32726	
8305	0	32725	
8306	0	32654	
8307	0	32768	
8308	0	32860	
8309	0	32809	
8310	0	32688	
8311	0	32720	
8312	0	32709	
8313	0	32868	
8314	0	32704	
8315	0	32644	
8316	0	32784	
8317	0	32765	
8318	0	32780	
8319	0	32768	
8320	0	32760	
8321	0	32840	
8322	0	32848	
8323	0	32756	
8324	0	32782	
8325	0	32852	
8326	0	32760	
8327	0	32770	
8328	0	32776	
8329	0	32740	
8330	0	32768	
8331	0	32734	
8332	0	32744	
8333	0	32728	
8334	0	32716	
8335	0	32768	
8336	0	32728	
8337	0	32804	
8338	0	32820	
8339	0	32876	
8340	0	32832	
8341	0	32880	
8342	0	32860	
8343	0	32820	
8344	0	32780	
8345	0	32708	
8346	0	32752	
8347	0	32748	
8348	0	32736	
8349	0	32764	
8350	0	32688	
8351	0	32712	
8352	0	32644	
8353	0	32772	
8354	0	32840	
8355	0	32800	
8356	0	32812	
8357	0	32809	
8358	0	32756	
8359	0	32878	
8360	0	32852	
8361	0	32820	
8362	0	32776	
8363	0	32888	
8364	0	32732	
8365	0	32788	
8366	0	32778	
8367	0	32749	
8368	0	32685	
8369	0	32724	
8370	0	32704	
8371	0	32728	
8372	0	32588	
8373	0	32792	
8374	0	32720	
8375	0	32760	
8376	0	32764	
8377	0	32824	
8378	0	32880	
8379	0	32909	
8380	0	32950	
8381	0	32784	
8382	0	32822	
8383	0	32816	
8384	0	32718	
8385	0	32728	
8386	0	32740	
8387	0	32784	
8388	0	32752	
8389	0	32824	
8390	0	32704	
8391	0	32648	
8392	0	32692	
8393	0	32756	
8394	0	32708	
8395	0	32740	
8396	0	32760	
8397	0	32780	
8398	0	32820	
8399	0	32844	
8400	0	32880	
8401	0	32824	
8402	0	32872	
8403	0	32808	
8404	0	32768	
8405	0	32748	
8406	0	32766	
8407	0	32704	
8408	0	32756	
8409	0	32684	
8410	0	32768	
8411	0	32729	
8412	0	32757	
8413	0	32696	
8414	0	32796	
8415	0	32780	
8416	0	32828	
8417	0	32750	
8418	0	32782	
8419	0	32870	
8420	0	32928	
8421	0	32788	
8422	0	32724	
8423	0	32628	
8424	0	32840	
8425	0	32784	
8426	0	32728	
8427	0	32736	
8428	0	32692	
8429	0	32884	
8430	0	32768	
8431	0	32736	
8432	0	32694	
8433	0	32752	
8434	0	32700	
8435	0	32708	
8436	0	32733	
8437	0	32761	
8438	0	32836	
8439	0	32788	
8440	0	32838	
8441	0	32880	
8442	0	32900	
8443	0	32841	
8444	0	32792	
8445	0	32744	
8446	0	32692	
8447	0	32716	
8448	0	32652	
8449	0	32732	
8450	0	32636	
8451	0	32676	
8452	0	32732	
8453	0	32689	
8454	0	32678	
8455	0	32716	
8456	0	32893	
8457	0	32780	
8458	0	32788	
8459	0	32868	
8460	0	32824	
8461	0	32981	
8462	0	32856	
8463	0	32812	
8464	0	32770	
8465	0	32652	
8466	0	32720	
8467	0	32752	
8468	0	32656	
8469	0	32680	
8470	0	32652	
8471	0	32686	
8472	0	32700	
8473	0	32824	
8474	0	32871	
8475	0	32900	
8476	0	32820	
8477	0	32788	
8478	0	32812	
8479	0	32812	
8480	0	32832	
8481	0	32784	
8482	0	32788	
8483	0	32828	
8484	0	32712	
8485	0	32752	
8486	0	32720	
8487	0	32692	
8488	0	32765	
8489	0	32678	
8490	0	32716	
8491	0	32752	
8492	0	32724	
8493	0	32756	
8494	0	32776	
8495	0	32784	
8496	0	32740	
8497	0	32880	
8498	0	32908	
8499	0	32872	
8500	0	32804	
8501	0	32788	
8502	0	32820	
8503	0	32944	
8504	0	32812	
8505	0	32788	
8506	0	32780	
8507	0	32684	
8508	0	32652	
8509	0	32676	
8510	0	32604	
8511	0	32732	
8512	0	32696	
8513	0	32760	
8514	0	32848	
8515	0	32772	
8516	0	32816	
8517	0	32716	
8518	0	32844	
8519	0	32801	
8520	0	32852	
8521	0	32928	
8522	0	32896	
8523	0	32832	
8524	0	32822	
8525	0	32799	
8526	0	32732	
8527	0	32741	
8528	0	32772	
8529	0	32632	
8530	0	32660	
8531	0	32668	
8532	0	32668	
8533	0	32702	
8534	0	32768	
8535	0	32796	
8536	0	32781	
8537	0	32757	
8538	0	32804	
8539	0	32804	
8540	0	32856	
8541	0	32876	
8542	0	32984	
8543	0	32844	
8544	0	32759	
8545	0	32772	
8546	0	32736	
8547	0	32640	
8548	0	32692	
8549	0	32777	
8550	0	32696	
8551	0	32612	
8552	0	32730	
8553	0	32808	
8554	0	32886	
8555	0	33024	
8556	0	32832	
8557	0	32740	
8558	0	32748	
8559	0	32768	
8560	0	32884	
8561	0	32848	
8562	0	32776	
8563	0	32804	
8564	0	32764	
8565	0	32775	
8566	0	32724	
8567	0	32700	
8568	0	32756	
8569	0	32772	
8570	0	32821	
8571	0	32784	
8572	0	32784	
8573	0	32740	
8574	0	32773	
8575	0	32712	
8576	0	32772	
8577	0	32832	
8578	0	32880	
8579	0	32880	
8580	0	32872	
8581	0	32924	
8582	0	32832	
8583	0	32768	
8584	0	32752	
8585	0	32720	
8586	0	32720	
8587	0	32640	
8588	0	32692	
8589	0	32724	
8590	0	32865	
8591	0	32774	
8592	0	32740	
8593	0	32776	
8594	0	32792	
8595	0	32750	
8596	0	32762	
8597	0	32852	
8598	0	32798	
8599	0	32865	
8600	0	32908	
8601	0	32808	
8602	0	32832	
8603	0	32768	
8604	0	32784	
8605	0	32764	
8606	0	32724	
8607	0	32718	
8608	0	32816	
8609	0	32772	
8610	0	32652	
8611	0	32720	
8612	0	32704	
8613	0	32680	
