# OpenSignals Text File Format. Version 1
# {"00:07:80:4D:2E:9E": {"sensor": ["EMG"], "device name": "00:07:80:4D:2E:9E", "column": ["nSeq", "DI", "CH1"], "sync interval": 2, "time": "12:31:24.124", "comments": "", "device connection": "BTH00:07:80:4D:2E:9E", "channels": [1], "keywords": "", "mode": 0, "digital IO": [0, 1], "firmware version": 774, "device": "biosignalsplux", "position": 0, "sampling rate": 1000, "label": ["CH1"], "resolution": [16], "date": "2020-8-1", "special": [{}]}}
# EndOfHeader
0	0	32956	
1	0	32816	
2	0	32870	
3	0	32932	
4	0	32804	
5	0	32704	
6	0	32677	
7	0	32768	
8	0	32732	
9	0	32680	
10	0	32716	
11	0	32676	
12	0	32700	
13	0	32665	
14	0	32728	
15	0	32860	
16	0	32808	
17	0	32744	
18	0	32740	
19	0	32780	
20	0	32809	
21	0	32764	
22	0	32844	
23	0	33028	
24	0	32872	
25	0	32758	
26	0	32729	
27	0	32778	
28	0	32740	
29	0	32720	
30	0	32744	
31	0	32700	
32	0	32716	
33	0	32716	
34	0	32724	
35	0	32780	
36	0	32704	
37	0	32848	
38	0	32788	
39	0	32836	
40	0	32888	
41	0	32772	
42	0	32777	
43	0	32836	
44	0	32732	
45	0	33032	
46	0	32856	
47	0	32832	
48	0	32812	
49	0	32712	
50	0	32703	
51	0	32708	
52	0	32740	
53	0	32764	
54	0	32704	
55	0	32764	
56	0	32741	
57	0	32768	
58	0	32792	
59	0	32820	
60	0	32762	
61	0	32852	
62	0	32900	
63	0	32868	
64	0	32852	
65	0	32752	
66	0	32792	
67	0	32840	
68	0	32836	
69	0	32680	
70	0	32700	
71	0	32684	
72	0	32748	
73	0	32716	
74	0	32686	
75	0	32752	
76	0	32768	
77	0	32828	
78	0	32792	
79	0	32876	
80	0	32880	
81	0	32792	
82	0	32869	
83	0	32916	
84	0	32848	
85	0	32832	
86	0	32772	
87	0	32808	
88	0	32756	
89	0	32740	
90	0	32736	
91	0	32660	
92	0	32676	
93	0	32696	
94	0	32772	
95	0	32832	
96	0	32832	
97	0	32837	
98	0	32764	
99	0	32812	
100	0	32800	
101	0	32888	
102	0	32808	
103	0	32849	
104	0	32820	
105	0	32846	
106	0	32752	
107	0	32780	
108	0	32742	
109	0	32694	
110	0	32792	
111	0	32716	
112	0	32668	
113	0	32708	
114	0	32704	
115	0	32796	
116	0	32768	
117	0	32756	
118	0	32836	
119	0	32796	
120	0	32804	
121	0	32812	
122	0	32960	
123	0	32932	
124	0	32846	
125	0	32892	
126	0	32796	
127	0	32721	
128	0	32616	
129	0	32628	
130	0	32671	
131	0	32844	
132	0	32812	
133	0	32824	
134	0	32820	
135	0	32748	
136	0	32778	
137	0	32740	
138	0	32750	
139	0	32932	
140	0	32828	
141	0	32756	
142	0	32772	
143	0	32801	
144	0	32721	
145	0	32816	
146	0	32908	
147	0	32836	
148	0	32725	
149	0	32685	
150	0	32692	
151	0	32704	
152	0	32692	
153	0	32736	
154	0	32753	
155	0	32832	
156	0	32820	
157	0	32752	
158	0	32784	
159	0	32796	
160	0	32876	
161	0	32876	
162	0	32820	
163	0	32786	
164	0	32814	
165	0	32808	
166	0	32744	
167	0	32770	
168	0	32732	
169	0	32712	
170	0	32768	
171	0	32777	
172	0	32692	
173	0	32741	
174	0	32748	
175	0	32676	
176	0	32728	
177	0	32788	
178	0	32804	
179	0	32828	
180	0	32844	
181	0	32816	
182	0	32856	
183	0	32860	
184	0	32836	
185	0	32804	
186	0	32856	
187	0	32720	
188	0	32672	
189	0	32708	
190	0	32704	
191	0	32800	
192	0	32724	
193	0	32676	
194	0	32696	
195	0	32721	
196	0	32700	
197	0	32696	
198	0	32850	
199	0	32896	
200	0	32796	
201	0	32759	
202	0	32836	
203	0	32812	
204	0	32732	
205	0	32893	
206	0	32932	
207	0	32812	
208	0	32784	
209	0	32768	
210	0	32676	
211	0	32672	
212	0	32712	
213	0	32705	
214	0	32732	
215	0	32741	
216	0	32751	
217	0	32796	
218	0	32788	
219	0	32820	
220	0	32780	
221	0	32856	
222	0	32872	
223	0	32864	
224	0	32933	
225	0	32820	
226	0	32712	
227	0	32716	
228	0	32752	
229	0	32729	
230	0	32672	
231	0	32746	
232	0	32716	
233	0	32780	
234	0	32664	
235	0	32780	
236	0	32680	
237	0	32904	
238	0	32864	
239	0	32756	
240	0	32648	
241	0	32772	
242	0	33040	
243	0	32940	
244	0	32940	
245	0	32845	
246	0	32688	
247	0	32640	
248	0	32728	
249	0	32644	
250	0	32984	
251	0	32844	
252	0	32704	
253	0	32744	
254	0	32732	
255	0	32693	
256	0	32737	
257	0	32716	
258	0	32684	
259	0	32764	
260	0	32821	
261	0	32820	
262	0	32852	
263	0	32860	
264	0	32944	
265	0	32900	
266	0	32732	
267	0	32716	
268	0	32708	
269	0	32708	
270	0	32748	
271	0	32688	
272	0	32760	
273	0	32708	
274	0	32757	
275	0	32794	
276	0	32764	
277	0	32748	
278	0	32808	
279	0	32840	
280	0	32878	
281	0	32852	
282	0	32775	
283	0	32812	
284	0	32801	
285	0	32776	
286	0	32775	
287	0	32873	
288	0	32924	
289	0	32780	
290	0	32668	
291	0	32704	
292	0	32680	
293	0	32694	
294	0	32756	
295	0	32773	
296	0	32824	
297	0	32814	
298	0	32772	
299	0	32812	
300	0	32844	
301	0	32814	
302	0	32860	
303	0	32848	
304	0	32734	
305	0	32828	
306	0	32716	
307	0	32780	
308	0	32792	
309	0	32836	
310	0	32776	
311	0	32672	
312	0	32692	
313	0	32668	
314	0	32712	
315	0	32768	
316	0	32804	
317	0	32832	
318	0	32752	
319	0	32741	
320	0	32792	
321	0	32904	
322	0	33004	
323	0	32860	
324	0	32768	
325	0	32952	
326	0	32840	
327	0	32760	
328	0	32780	
329	0	32688	
330	0	32708	
331	0	32724	
332	0	32676	
333	0	32708	
334	0	32744	
335	0	32716	
336	0	32782	
337	0	32800	
338	0	32813	
339	0	32788	
340	0	32901	
341	0	32876	
342	0	32849	
343	0	32820	
344	0	32836	
345	0	32804	
346	0	32800	
347	0	32772	
348	0	32748	
349	0	32868	
350	0	32632	
351	0	32649	
352	0	32664	
353	0	32736	
354	0	32760	
355	0	32704	
356	0	32764	
357	0	32732	
358	0	32748	
359	0	32748	
360	0	32800	
361	0	32960	
362	0	32989	
363	0	32884	
364	0	32837	
365	0	32820	
366	0	32748	
367	0	32768	
368	0	32732	
369	0	32758	
370	0	32720	
371	0	32672	
372	0	32648	
373	0	32716	
374	0	32760	
375	0	32684	
376	0	32832	
377	0	32806	
378	0	32788	
379	0	32844	
380	0	32884	
381	0	32844	
382	0	32844	
383	0	32892	
384	0	32884	
385	0	32784	
386	0	32781	
387	0	32732	
388	0	32769	
389	0	32748	
390	0	32748	
391	0	32776	
392	0	32679	
393	0	32708	
394	0	32713	
395	0	32757	
396	0	32796	
397	0	32720	
398	0	32752	
399	0	32928	
400	0	32804	
401	0	32808	
402	0	32884	
403	0	32852	
404	0	32828	
405	0	32788	
406	0	32784	
407	0	32720	
408	0	32752	
409	0	32660	
410	0	32696	
411	0	32760	
412	0	32764	
413	0	32820	
414	0	32764	
415	0	32684	
416	0	32736	
417	0	32768	
418	0	32772	
419	0	32780	
420	0	32820	
421	0	32872	
422	0	32813	
423	0	32848	
424	0	32856	
425	0	32752	
426	0	32828	
427	0	32744	
428	0	32816	
429	0	32780	
430	0	32676	
431	0	32744	
432	0	32736	
433	0	32668	
434	0	32760	
435	0	32714	
436	0	32668	
437	0	32732	
438	0	32865	
439	0	32836	
440	0	32925	
441	0	32872	
442	0	32836	
443	0	32752	
444	0	32824	
445	0	32789	
446	0	32772	
447	0	32784	
448	0	32724	
449	0	32704	
450	0	32724	
451	0	32697	
452	0	32772	
453	0	32728	
454	0	32724	
455	0	32724	
456	0	32796	
457	0	32798	
458	0	32780	
459	0	32900	
460	0	32852	
461	0	32780	
462	0	32816	
463	0	32876	
464	0	32856	
465	0	32792	
466	0	32800	
467	0	32708	
468	0	32761	
469	0	32724	
470	0	32694	
471	0	32674	
472	0	32712	
473	0	32700	
474	0	32736	
475	0	32782	
476	0	32864	
477	0	32704	
478	0	32700	
479	0	32792	
480	0	32816	
481	0	32752	
482	0	32772	
483	0	33068	
484	0	33032	
485	0	32948	
486	0	32764	
487	0	32768	
488	0	32760	
489	0	32736	
490	0	32740	
491	0	32728	
492	0	32584	
493	0	32702	
494	0	32706	
495	0	32732	
496	0	32788	
497	0	32775	
498	0	32856	
499	0	32852	
500	0	32856	
501	0	32845	
502	0	32900	
503	0	32840	
504	0	32832	
505	0	32828	
506	0	32749	
507	0	32732	
508	0	32692	
509	0	32736	
510	0	32712	
511	0	32668	
512	0	32692	
513	0	32742	
514	0	32700	
515	0	32705	
516	0	32808	
517	0	32784	
518	0	32828	
519	0	32860	
520	0	32828	
521	0	32880	
522	0	33004	
523	0	32788	
524	0	32880	
525	0	32844	
526	0	32744	
527	0	32712	
528	0	32644	
529	0	32716	
530	0	32644	
531	0	32720	
532	0	32856	
533	0	32724	
534	0	32600	
535	0	32756	
536	0	32900	
537	0	32800	
538	0	32784	
539	0	32796	
540	0	32736	
541	0	32860	
542	0	32784	
543	0	32904	
544	0	32888	
545	0	32764	
546	0	32706	
547	0	32665	
548	0	32700	
549	0	32792	
550	0	32784	
551	0	32836	
552	0	32848	
553	0	32712	
554	0	32560	
555	0	32584	
556	0	32816	
557	0	32788	
558	0	32789	
559	0	32816	
560	0	32864	
561	0	32864	
562	0	32844	
563	0	32813	
564	0	32792	
565	0	32768	
566	0	32877	
567	0	32768	
568	0	32784	
569	0	32772	
570	0	32686	
571	0	32685	
572	0	32724	
573	0	32732	
574	0	32696	
575	0	32740	
576	0	32756	
577	0	32760	
578	0	32830	
579	0	32828	
580	0	32772	
581	0	32862	
582	0	32892	
583	0	32852	
584	0	32884	
585	0	32764	
586	0	32788	
587	0	32680	
588	0	32816	
589	0	32812	
590	0	32669	
591	0	32644	
592	0	32824	
593	0	32774	
594	0	32704	
595	0	32820	
596	0	32748	
597	0	32752	
598	0	32812	
599	0	32730	
600	0	32856	
601	0	32812	
602	0	32820	
603	0	32820	
604	0	32800	
605	0	32780	
606	0	32796	
607	0	32736	
608	0	32748	
609	0	32904	
610	0	32812	
611	0	32720	
612	0	32752	
613	0	32796	
614	0	32817	
615	0	32740	
616	0	32776	
617	0	32748	
618	0	32868	
619	0	32868	
620	0	32772	
621	0	32924	
622	0	32944	
623	0	32772	
624	0	32728	
625	0	32728	
626	0	32752	
627	0	32724	
628	0	32716	
629	0	32788	
630	0	32764	
631	0	32752	
632	0	32716	
633	0	32696	
634	0	32736	
635	0	32740	
636	0	32744	
637	0	32804	
638	0	32814	
639	0	32852	
640	0	32796	
641	0	32848	
642	0	32892	
643	0	32756	
644	0	32788	
645	0	32804	
646	0	32792	
647	0	32864	
648	0	32796	
649	0	32740	
650	0	32732	
651	0	32687	
652	0	32708	
653	0	32672	
654	0	32704	
655	0	32792	
656	0	32856	
657	0	32728	
658	0	32856	
659	0	32820	
660	0	32824	
661	0	32929	
662	0	32844	
663	0	32892	
664	0	32837	
665	0	32772	
666	0	32698	
667	0	32688	
668	0	32688	
669	0	32804	
670	0	32712	
671	0	32777	
672	0	32708	
673	0	32764	
674	0	32812	
675	0	32744	
676	0	32760	
677	0	32704	
678	0	32775	
679	0	32804	
680	0	32865	
681	0	32900	
682	0	32776	
683	0	32864	
684	0	32828	
685	0	32800	
686	0	32796	
687	0	32752	
688	0	32736	
689	0	32676	
690	0	32708	
691	0	32714	
692	0	32748	
693	0	32668	
694	0	32772	
695	0	32752	
696	0	32733	
697	0	32748	
698	0	32692	
699	0	32865	
700	0	33120	
701	0	32870	
702	0	32760	
703	0	32792	
704	0	32818	
705	0	32832	
706	0	32782	
707	0	32716	
708	0	32776	
709	0	32708	
710	0	32825	
711	0	32854	
712	0	32654	
713	0	32716	
714	0	32736	
715	0	32756	
716	0	32736	
717	0	32696	
718	0	32752	
719	0	32784	
720	0	32860	
721	0	32876	
722	0	32808	
723	0	32860	
724	0	32788	
725	0	32756	
726	0	32812	
727	0	32765	
728	0	32744	
729	0	32708	
730	0	32748	
731	0	32752	
732	0	32716	
733	0	32733	
734	0	32742	
735	0	32768	
736	0	32768	
737	0	32816	
738	0	32836	
739	0	32824	
740	0	32780	
741	0	32876	
742	0	32812	
743	0	32860	
744	0	32876	
745	0	32812	
746	0	32768	
747	0	32804	
748	0	32740	
749	0	32745	
750	0	32744	
751	0	32724	
752	0	32668	
753	0	32696	
754	0	32740	
755	0	32753	
756	0	32760	
757	0	32789	
758	0	32744	
759	0	32788	
760	0	32852	
761	0	32904	
762	0	32908	
763	0	32856	
764	0	32828	
765	0	32829	
766	0	32752	
767	0	32744	
768	0	32728	
769	0	32700	
770	0	32688	
771	0	32698	
772	0	32760	
773	0	32704	
774	0	32732	
775	0	32812	
776	0	32768	
777	0	32812	
778	0	32824	
779	0	32834	
780	0	32796	
781	0	32900	
782	0	32960	
783	0	32784	
784	0	32796	
785	0	32828	
786	0	32860	
787	0	32700	
788	0	32714	
789	0	32740	
790	0	32732	
791	0	32716	
792	0	32700	
793	0	32760	
794	0	32776	
795	0	32724	
796	0	32752	
797	0	32801	
798	0	32800	
799	0	32820	
800	0	32865	
801	0	32872	
802	0	32828	
803	0	32900	
804	0	32925	
805	0	32764	
806	0	32801	
807	0	32737	
808	0	32760	
809	0	32772	
810	0	32736	
811	0	32700	
812	0	32728	
813	0	32728	
814	0	32700	
815	0	32716	
816	0	32736	
817	0	32804	
818	0	32772	
819	0	32832	
820	0	32885	
821	0	32869	
822	0	32892	
823	0	32836	
824	0	32792	
825	0	32788	
826	0	32764	
827	0	32768	
828	0	32838	
829	0	32780	
830	0	32756	
831	0	32725	
832	0	32738	
833	0	32686	
834	0	32720	
835	0	32776	
836	0	32760	
837	0	32812	
838	0	32740	
839	0	32793	
840	0	32869	
841	0	33032	
842	0	32832	
843	0	32736	
844	0	32728	
845	0	32742	
846	0	32816	
847	0	32800	
848	0	32749	
849	0	32732	
850	0	32708	
851	0	32736	
852	0	32804	
853	0	32652	
854	0	32646	
855	0	32853	
856	0	32785	
857	0	32832	
858	0	32784	
859	0	32826	
860	0	32876	
861	0	32904	
862	0	32812	
863	0	32840	
864	0	32857	
865	0	32796	
866	0	32728	
867	0	32654	
868	0	32692	
869	0	32780	
870	0	32772	
871	0	32868	
872	0	32804	
873	0	32752	
874	0	32772	
875	0	32750	
876	0	32804	
877	0	32932	
878	0	32844	
879	0	32800	
880	0	32688	
881	0	32848	
882	0	32785	
883	0	32892	
884	0	32920	
885	0	32824	
886	0	32776	
887	0	32756	
888	0	32764	
889	0	32752	
890	0	32696	
891	0	32688	
892	0	32768	
893	0	32680	
894	0	32788	
895	0	32796	
896	0	32748	
897	0	32740	
898	0	32716	
899	0	32884	
900	0	32900	
901	0	32852	
902	0	32908	
903	0	32868	
904	0	32760	
905	0	32849	
906	0	32804	
907	0	32845	
908	0	32744	
909	0	32744	
910	0	32724	
911	0	32720	
912	0	32708	
913	0	32688	
914	0	32736	
915	0	32836	
916	0	32790	
917	0	32684	
918	0	32760	
919	0	32760	
920	0	32804	
921	0	32805	
922	0	32868	
923	0	32900	
924	0	32836	
925	0	32800	
926	0	32741	
927	0	32716	
928	0	32786	
929	0	32756	
930	0	32740	
931	0	32692	
932	0	32708	
933	0	32752	
934	0	32696	
935	0	32728	
936	0	32764	
937	0	32836	
938	0	32828	
939	0	32833	
940	0	32816	
941	0	32864	
942	0	32804	
943	0	32876	
944	0	32784	
945	0	32761	
946	0	32760	
947	0	32820	
948	0	32780	
949	0	32748	
950	0	32704	
951	0	32668	
952	0	32733	
953	0	32716	
954	0	32716	
955	0	32744	
956	0	32784	
957	0	32800	
958	0	32829	
959	0	32856	
960	0	32644	
961	0	32748	
962	0	32856	
963	0	32904	
964	0	32788	
965	0	32821	
966	0	32760	
967	0	32769	
968	0	32728	
969	0	32716	
970	0	32665	
971	0	32736	
972	0	32832	
973	0	32782	
974	0	32672	
975	0	32680	
976	0	32640	
977	0	32864	
978	0	32928	
979	0	32884	
980	0	33009	
981	0	32766	
982	0	32869	
983	0	32868	
984	0	32808	
985	0	32776	
986	0	32800	
987	0	32720	
988	0	32798	
989	0	32900	
990	0	32756	
991	0	32648	
992	0	32654	
993	0	32716	
994	0	32724	
995	0	32764	
996	0	32748	
997	0	32772	
998	0	32758	
999	0	32798	
1000	0	32792	
1001	0	32808	
1002	0	32844	
1003	0	32821	
1004	0	32808	
1005	0	32836	
1006	0	32824	
1007	0	32756	
1008	0	32780	
1009	0	32664	
1010	0	32684	
1011	0	32701	
1012	0	32668	
1013	0	32692	
1014	0	32768	
1015	0	32724	
1016	0	32828	
1017	0	32888	
1018	0	32840	
1019	0	32861	
1020	0	32884	
1021	0	32796	
1022	0	32788	
1023	0	32772	
1024	0	32844	
1025	0	32776	
1026	0	32824	
1027	0	32800	
1028	0	32784	
1029	0	32768	
1030	0	32716	
1031	0	32708	
1032	0	32728	
1033	0	32712	
1034	0	32768	
1035	0	32740	
1036	0	32804	
1037	0	32828	
1038	0	32828	
1039	0	32804	
1040	0	32824	
1041	0	32809	
1042	0	32808	
1043	0	32832	
1044	0	32820	
1045	0	32756	
1046	0	32820	
1047	0	32772	
1048	0	32796	
1049	0	32744	
1050	0	32769	
1051	0	32752	
1052	0	32688	
1053	0	32745	
1054	0	32860	
1055	0	32688	
1056	0	32768	
1057	0	32772	
1058	0	32752	
1059	0	32824	
1060	0	32776	
1061	0	32760	
1062	0	32816	
1063	0	32868	
1064	0	32820	
1065	0	32928	
1066	0	32824	
1067	0	32796	
1068	0	32712	
1069	0	32652	
1070	0	32926	
1071	0	32712	
1072	0	32585	
1073	0	32622	
1074	0	32704	
1075	0	32780	
1076	0	32704	
1077	0	32796	
1078	0	32824	
1079	0	32736	
1080	0	32796	
1081	0	32852	
1082	0	32852	
1083	0	32813	
1084	0	32836	
1085	0	32816	
1086	0	32784	
1087	0	32800	
1088	0	32780	
1089	0	32712	
1090	0	32612	
1091	0	32758	
1092	0	32800	
1093	0	32748	
1094	0	32768	
1095	0	32778	
1096	0	32756	
1097	0	32800	
1098	0	32756	
1099	0	32842	
1100	0	32864	
1101	0	32820	
1102	0	32920	
1103	0	32828	
1104	0	32778	
1105	0	32732	
1106	0	32724	
1107	0	32736	
1108	0	32796	
1109	0	32768	
1110	0	32724	
1111	0	32728	
1112	0	32744	
1113	0	32688	
1114	0	32768	
1115	0	32824	
1116	0	32808	
1117	0	32756	
1118	0	32781	
1119	0	32804	
1120	0	32796	
1121	0	32852	
1122	0	32857	
1123	0	32873	
1124	0	32832	
1125	0	32824	
1126	0	32784	
1127	0	32772	
1128	0	32788	
1129	0	32688	
1130	0	32696	
1131	0	32733	
1132	0	32760	
1133	0	32704	
1134	0	32696	
1135	0	32740	
1136	0	32748	
1137	0	32788	
1138	0	32764	
1139	0	32840	
1140	0	32836	
1141	0	32812	
1142	0	32876	
1143	0	32820	
1144	0	32856	
1145	0	32832	
1146	0	32800	
1147	0	32768	
1148	0	32809	
1149	0	32780	
1150	0	32721	
1151	0	32696	
1152	0	32737	
1153	0	32712	
1154	0	32744	
1155	0	32792	
1156	0	32796	
1157	0	32793	
1158	0	32804	
1159	0	32824	
1160	0	32882	
1161	0	32957	
1162	0	32904	
1163	0	32812	
1164	0	32838	
1165	0	32808	
1166	0	32698	
1167	0	32776	
1168	0	32692	
1169	0	32732	
1170	0	32848	
1171	0	32846	
1172	0	32689	
1173	0	32740	
1174	0	32716	
1175	0	32728	
1176	0	32740	
1177	0	32776	
1178	0	32760	
1179	0	32768	
1180	0	32826	
1181	0	32830	
1182	0	32896	
1183	0	32820	
1184	0	32800	
1185	0	32768	
1186	0	32732	
1187	0	32774	
1188	0	32860	
1189	0	32760	
1190	0	32712	
1191	0	32621	
1192	0	32776	
1193	0	32948	
1194	0	32765	
1195	0	32704	
1196	0	32842	
1197	0	32804	
1198	0	32800	
1199	0	32681	
1200	0	32806	
1201	0	32845	
1202	0	32804	
1203	0	32876	
1204	0	32840	
1205	0	32820	
1206	0	32741	
1207	0	32736	
1208	0	32829	
1209	0	32656	
1210	0	32692	
1211	0	32684	
1212	0	32725	
1213	0	32764	
1214	0	32764	
1215	0	32753	
1216	0	32756	
1217	0	32744	
1218	0	32768	
1219	0	32800	
1220	0	32852	
1221	0	32948	
1222	0	32871	
1223	0	32824	
1224	0	32794	
1225	0	32840	
1226	0	32756	
1227	0	32828	
1228	0	32764	
1229	0	32768	
1230	0	32696	
1231	0	32700	
1232	0	32700	
1233	0	32672	
1234	0	32684	
1235	0	32820	
1236	0	32884	
1237	0	32870	
1238	0	32784	
1239	0	32805	
1240	0	32813	
1241	0	32768	
1242	0	32780	
1243	0	32846	
1244	0	32844	
1245	0	32824	
1246	0	32792	
1247	0	32804	
1248	0	32692	
1249	0	32716	
1250	0	32736	
1251	0	32717	
1252	0	32797	
1253	0	32700	
1254	0	32736	
1255	0	32736	
1256	0	32773	
1257	0	32764	
1258	0	32845	
1259	0	32897	
1260	0	32804	
1261	0	32820	
1262	0	32830	
1263	0	32834	
1264	0	32840	
1265	0	32776	
1266	0	32756	
1267	0	32752	
1268	0	32748	
1269	0	32724	
1270	0	32728	
1271	0	32720	
1272	0	32732	
1273	0	32756	
1274	0	32724	
1275	0	32741	
1276	0	32773	
1277	0	32797	
1278	0	32760	
1279	0	32844	
1280	0	32876	
1281	0	32872	
1282	0	32800	
1283	0	32908	
1284	0	32840	
1285	0	32760	
1286	0	32788	
1287	0	32736	
1288	0	32736	
1289	0	32784	
1290	0	32800	
1291	0	32724	
1292	0	32676	
1293	0	32672	
1294	0	32732	
1295	0	32808	
1296	0	32684	
1297	0	32748	
1298	0	32661	
1299	0	32927	
1300	0	32996	
1301	0	32814	
1302	0	32816	
1303	0	32829	
1304	0	32832	
1305	0	32785	
1306	0	32744	
1307	0	32748	
1308	0	32736	
1309	0	32800	
1310	0	32804	
1311	0	32780	
1312	0	32700	
1313	0	32740	
1314	0	32656	
1315	0	32744	
1316	0	32772	
1317	0	32748	
1318	0	32752	
1319	0	32828	
1320	0	32888	
1321	0	32860	
1322	0	32888	
1323	0	32852	
1324	0	32808	
1325	0	32872	
1326	0	32677	
1327	0	32740	
1328	0	32724	
1329	0	32780	
1330	0	32768	
1331	0	32704	
1332	0	32750	
1333	0	32712	
1334	0	32676	
1335	0	32856	
1336	0	32812	
1337	0	32776	
1338	0	32750	
1339	0	32716	
1340	0	32736	
1341	0	32800	
1342	0	32932	
1343	0	33036	
1344	0	32928	
1345	0	32740	
1346	0	32744	
1347	0	32724	
1348	0	32677	
1349	0	32672	
1350	0	32740	
1351	0	32792	
1352	0	32792	
1353	0	32712	
1354	0	32676	
1355	0	32780	
1356	0	32800	
1357	0	32812	
1358	0	32799	
1359	0	32756	
1360	0	32768	
1361	0	32796	
1362	0	32816	
1363	0	32904	
1364	0	32880	
1365	0	32844	
1366	0	32836	
1367	0	32776	
1368	0	32716	
1369	0	32700	
1370	0	32768	
1371	0	32632	
1372	0	32788	
1373	0	32720	
1374	0	32706	
1375	0	32760	
1376	0	32788	
1377	0	32704	
1378	0	32800	
1379	0	32868	
1380	0	32860	
1381	0	32860	
1382	0	32821	
1383	0	32888	
1384	0	32800	
1385	0	32780	
1386	0	32808	
1387	0	32744	
1388	0	32804	
1389	0	32734	
1390	0	32656	
1391	0	32628	
1392	0	32660	
1393	0	32708	
1394	0	32940	
1395	0	32920	
1396	0	32736	
1397	0	32784	
1398	0	32808	
1399	0	32892	
1400	0	32804	
1401	0	32788	
1402	0	32845	
1403	0	32812	
1404	0	32768	
1405	0	32784	
1406	0	32741	
1407	0	32788	
1408	0	32830	
1409	0	32792	
1410	0	32708	
1411	0	32740	
1412	0	32752	
1413	0	32724	
1414	0	32704	
1415	0	32772	
1416	0	32772	
1417	0	32776	
1418	0	32827	
1419	0	32708	
1420	0	32820	
1421	0	32890	
1422	0	32885	
1423	0	32820	
1424	0	32820	
1425	0	32764	
1426	0	32744	
1427	0	32756	
1428	0	32700	
1429	0	32688	
1430	0	32832	
1431	0	32816	
1432	0	32696	
1433	0	32672	
1434	0	32788	
1435	0	32776	
1436	0	32740	
1437	0	32876	
1438	0	32808	
1439	0	32788	
1440	0	32796	
1441	0	32957	
1442	0	32920	
1443	0	32789	
1444	0	32792	
1445	0	32876	
1446	0	32776	
1447	0	32673	
1448	0	32732	
1449	0	32724	
1450	0	32752	
1451	0	32680	
1452	0	32712	
1453	0	32861	
1454	0	32748	
1455	0	32688	
1456	0	32726	
1457	0	32820	
1458	0	32752	
1459	0	32828	
1460	0	32844	
1461	0	32820	
1462	0	32776	
1463	0	32892	
1464	0	32831	
1465	0	32796	
1466	0	32804	
1467	0	32768	
1468	0	32700	
1469	0	32724	
1470	0	32688	
1471	0	32784	
1472	0	32764	
1473	0	32752	
1474	0	32780	
1475	0	32764	
1476	0	32800	
1477	0	32773	
1478	0	32768	
1479	0	32796	
1480	0	32884	
1481	0	32788	
1482	0	32816	
1483	0	32860	
1484	0	32834	
1485	0	32832	
1486	0	32784	
1487	0	32768	
1488	0	32724	
1489	0	32764	
1490	0	32832	
1491	0	32724	
1492	0	32736	
1493	0	32720	
1494	0	32696	
1495	0	32748	
1496	0	32809	
1497	0	32764	
1498	0	32826	
1499	0	32865	
1500	0	32840	
1501	0	32852	
1502	0	32856	
1503	0	32760	
1504	0	32808	
1505	0	32817	
1506	0	32686	
1507	0	32784	
1508	0	32804	
1509	0	32784	
1510	0	32832	
1511	0	32692	
1512	0	32732	
1513	0	32732	
1514	0	32752	
1515	0	32760	
1516	0	32740	
1517	0	32630	
1518	0	32784	
1519	0	32816	
1520	0	32828	
1521	0	32900	
1522	0	32852	
1523	0	32884	
1524	0	32876	
1525	0	32748	
1526	0	32780	
1527	0	32784	
1528	0	32788	
1529	0	32776	
1530	0	32700	
1531	0	32780	
1532	0	32744	
1533	0	32684	
1534	0	32684	
1535	0	32684	
1536	0	32760	
1537	0	32756	
1538	0	32928	
1539	0	32876	
1540	0	32768	
1541	0	32722	
1542	0	32872	
1543	0	32812	
1544	0	32764	
1545	0	32752	
1546	0	32728	
1547	0	32740	
1548	0	32784	
1549	0	32788	
1550	0	32888	
1551	0	32912	
1552	0	32812	
1553	0	32796	
1554	0	32692	
1555	0	32706	
1556	0	32812	
1557	0	32780	
1558	0	32776	
1559	0	32776	
1560	0	32844	
1561	0	32852	
1562	0	32908	
1563	0	32828	
1564	0	32800	
1565	0	32824	
1566	0	32760	
1567	0	32772	
1568	0	32872	
1569	0	32776	
1570	0	32640	
1571	0	32692	
1572	0	32704	
1573	0	32664	
1574	0	32809	
1575	0	32804	
1576	0	32749	
1577	0	32772	
1578	0	32912	
1579	0	32888	
1580	0	32892	
1581	0	32856	
1582	0	32752	
1583	0	32808	
1584	0	32770	
1585	0	32760	
1586	0	32788	
1587	0	32728	
1588	0	32792	
1589	0	32776	
1590	0	32717	
1591	0	32676	
1592	0	32756	
1593	0	32708	
1594	0	32662	
1595	0	32748	
1596	0	32712	
1597	0	32808	
1598	0	32816	
1599	0	32832	
1600	0	32880	
1601	0	32864	
1602	0	32858	
1603	0	32829	
1604	0	32808	
1605	0	32856	
1606	0	32768	
1607	0	32704	
1608	0	32892	
1609	0	32968	
1610	0	32708	
1611	0	32696	
1612	0	32740	
1613	0	32728	
1614	0	32756	
1615	0	32760	
1616	0	32732	
1617	0	32800	
1618	0	32804	
1619	0	32856	
1620	0	32872	
1621	0	32808	
1622	0	32746	
1623	0	32792	
1624	0	32821	
1625	0	32792	
1626	0	32752	
1627	0	32760	
1628	0	32744	
1629	0	32776	
1630	0	32661	
1631	0	32696	
1632	0	32868	
1633	0	32757	
1634	0	32672	
1635	0	32788	
1636	0	32740	
1637	0	32728	
1638	0	32792	
1639	0	32784	
1640	0	32789	
1641	0	32862	
1642	0	32845	
1643	0	32868	
1644	0	32824	
1645	0	32812	
1646	0	32781	
1647	0	32837	
1648	0	32780	
1649	0	32816	
1650	0	32744	
1651	0	32740	
1652	0	32797	
1653	0	32752	
1654	0	32713	
1655	0	32749	
1656	0	32736	
1657	0	32768	
1658	0	32820	
1659	0	32944	
1660	0	32936	
1661	0	32764	
1662	0	32832	
1663	0	32808	
1664	0	32844	
1665	0	32813	
1666	0	32761	
1667	0	32644	
1668	0	32688	
1669	0	32676	
1670	0	32812	
1671	0	32728	
1672	0	32720	
1673	0	32756	
1674	0	32692	
1675	0	32704	
1676	0	32792	
1677	0	32732	
1678	0	32804	
1679	0	32812	
1680	0	32892	
1681	0	32916	
1682	0	33020	
1683	0	32916	
1684	0	32780	
1685	0	32724	
1686	0	32784	
1687	0	32768	
1688	0	32624	
1689	0	32766	
1690	0	32745	
1691	0	32709	
1692	0	32792	
1693	0	33012	
1694	0	32780	
1695	0	32712	
1696	0	32700	
1697	0	32773	
1698	0	32700	
1699	0	32815	
1700	0	32809	
1701	0	32772	
1702	0	32816	
1703	0	32792	
1704	0	32808	
1705	0	32772	
1706	0	32832	
1707	0	32796	
1708	0	32736	
1709	0	32720	
1710	0	32760	
1711	0	32656	
1712	0	32724	
1713	0	32657	
1714	0	32720	
1715	0	32756	
1716	0	32800	
1717	0	32745	
1718	0	32814	
1719	0	32748	
1720	0	32976	
1721	0	32912	
1722	0	32740	
1723	0	32848	
1724	0	32897	
1725	0	32830	
1726	0	32836	
1727	0	32786	
1728	0	32760	
1729	0	32624	
1730	0	32700	
1731	0	32756	
1732	0	32760	
1733	0	32680	
1734	0	32736	
1735	0	32736	
1736	0	32780	
1737	0	32760	
1738	0	32793	
1739	0	32816	
1740	0	32852	
1741	0	32848	
1742	0	32836	
1743	0	32832	
1744	0	32796	
1745	0	32860	
1746	0	32828	
1747	0	32812	
1748	0	32796	
1749	0	32816	
1750	0	32713	
1751	0	32666	
1752	0	32624	
1753	0	32692	
1754	0	32684	
1755	0	32760	
1756	0	32756	
1757	0	32765	
1758	0	32856	
1759	0	32784	
1760	0	32808	
1761	0	32794	
1762	0	32885	
1763	0	32832	
1764	0	32888	
1765	0	32784	
1766	0	32688	
1767	0	32812	
1768	0	32748	
1769	0	32716	
1770	0	32804	
1771	0	32780	
1772	0	32732	
1773	0	32652	
1774	0	32748	
1775	0	32736	
1776	0	32792	
1777	0	32804	
1778	0	32932	
1779	0	32796	
1780	0	32808	
1781	0	32816	
1782	0	32832	
1783	0	32900	
1784	0	32784	
1785	0	32826	
1786	0	32856	
1787	0	32748	
1788	0	32680	
1789	0	32704	
1790	0	32740	
1791	0	32724	
1792	0	32648	
1793	0	32656	
1794	0	32788	
1795	0	32760	
1796	0	32744	
1797	0	32916	
1798	0	32732	
1799	0	32776	
1800	0	32900	
1801	0	32844	
1802	0	32812	
1803	0	32780	
1804	0	32758	
1805	0	32708	
1806	0	32929	
1807	0	32840	
1808	0	32864	
1809	0	32744	
1810	0	32686	
1811	0	32614	
1812	0	32644	
1813	0	32852	
1814	0	32764	
1815	0	32753	
1816	0	32852	
1817	0	32757	
1818	0	32737	
1819	0	32712	
1820	0	32776	
1821	0	32796	
1822	0	32884	
1823	0	32896	
1824	0	32828	
1825	0	32828	
1826	0	32864	
1827	0	32757	
1828	0	32676	
1829	0	32704	
1830	0	32792	
1831	0	32741	
1832	0	32708	
1833	0	32740	
1834	0	32756	
1835	0	32764	
1836	0	32744	
1837	0	32660	
1838	0	32820	
1839	0	32932	
1840	0	32888	
1841	0	32944	
1842	0	32984	
1843	0	32836	
1844	0	32776	
1845	0	32800	
1846	0	32736	
1847	0	32824	
1848	0	32696	
1849	0	32712	
1850	0	32688	
1851	0	32714	
1852	0	32732	
1853	0	32744	
1854	0	32794	
1855	0	32728	
1856	0	32726	
1857	0	32805	
1858	0	32741	
1859	0	32836	
1860	0	32892	
1861	0	32764	
1862	0	32872	
1863	0	32848	
1864	0	32777	
1865	0	32808	
1866	0	32812	
1867	0	32776	
1868	0	32788	
1869	0	32808	
1870	0	32794	
1871	0	32832	
1872	0	32708	
1873	0	32676	
1874	0	32688	
1875	0	32732	
1876	0	32756	
1877	0	32676	
1878	0	32728	
1879	0	32785	
1880	0	32896	
1881	0	32872	
1882	0	32840	
1883	0	32824	
1884	0	32812	
1885	0	32756	
1886	0	32876	
1887	0	32800	
1888	0	32792	
1889	0	32725	
1890	0	32660	
1891	0	32664	
1892	0	32709	
1893	0	32840	
1894	0	32724	
1895	0	32700	
1896	0	32764	
1897	0	32744	
1898	0	32768	
1899	0	32816	
1900	0	32852	
1901	0	32864	
1902	0	32881	
1903	0	32860	
1904	0	32932	
1905	0	32860	
1906	0	32741	
1907	0	32636	
1908	0	32704	
1909	0	32736	
1910	0	32684	
1911	0	32756	
1912	0	32664	
1913	0	32728	
1914	0	32736	
1915	0	32749	
1916	0	32852	
1917	0	32752	
1918	0	32844	
1919	0	32768	
1920	0	32756	
1921	0	32836	
1922	0	32836	
1923	0	32864	
1924	0	32872	
1925	0	32832	
1926	0	32772	
1927	0	32784	
1928	0	32694	
1929	0	32820	
1930	0	32928	
1931	0	32776	
1932	0	32710	
1933	0	32770	
1934	0	32696	
1935	0	32736	
1936	0	32768	
1937	0	32812	
1938	0	32792	
1939	0	32824	
1940	0	32720	
1941	0	32768	
1942	0	32756	
1943	0	32761	
1944	0	32727	
1945	0	32822	
1946	0	32800	
1947	0	32860	
1948	0	32780	
1949	0	32768	
1950	0	32804	
1951	0	32740	
1952	0	32732	
1953	0	32686	
1954	0	32740	
1955	0	32756	
1956	0	32748	
1957	0	32788	
1958	0	32826	
1959	0	32728	
1960	0	32932	
1961	0	32877	
1962	0	32820	
1963	0	32848	
1964	0	32752	
1965	0	32780	
1966	0	32776	
1967	0	32733	
1968	0	32736	
1969	0	32701	
1970	0	32740	
1971	0	32796	
1972	0	32725	
1973	0	32745	
1974	0	32684	
1975	0	32748	
1976	0	32788	
1977	0	32717	
1978	0	32792	
1979	0	32832	
1980	0	32860	
1981	0	32820	
1982	0	32808	
1983	0	32852	
1984	0	32748	
1985	0	32800	
1986	0	32824	
1987	0	32744	
1988	0	32720	
1989	0	32757	
1990	0	32636	
1991	0	32744	
1992	0	32700	
1993	0	32780	
1994	0	32796	
1995	0	32676	
1996	0	32776	
1997	0	32756	
1998	0	32724	
1999	0	32750	
2000	0	32949	
2001	0	32892	
2002	0	32860	
2003	0	32868	
2004	0	32941	
2005	0	32780	
2006	0	32688	
2007	0	32812	
2008	0	32748	
2009	0	32720	
2010	0	32688	
2011	0	32680	
2012	0	32708	
2013	0	32724	
2014	0	32700	
2015	0	32848	
2016	0	32812	
2017	0	32800	
2018	0	32780	
2019	0	32692	
2020	0	32828	
2021	0	32804	
2022	0	32874	
2023	0	32856	
2024	0	32764	
2025	0	32740	
2026	0	32857	
2027	0	32813	
2028	0	32788	
2029	0	32732	
2030	0	32704	
2031	0	32716	
2032	0	32901	
2033	0	32748	
2034	0	32624	
2035	0	32744	
2036	0	32832	
2037	0	32832	
2038	0	32784	
2039	0	32760	
2040	0	32828	
2041	0	32828	
2042	0	32849	
2043	0	32892	
2044	0	32820	
2045	0	32772	
2046	0	32792	
2047	0	32801	
2048	0	32732	
2049	0	32784	
2050	0	32775	
2051	0	32736	
2052	0	32732	
2053	0	32740	
2054	0	32743	
2055	0	32696	
2056	0	32824	
2057	0	32800	
2058	0	32852	
2059	0	32816	
2060	0	32800	
2061	0	32848	
2062	0	32828	
2063	0	32784	
2064	0	32852	
2065	0	32932	
2066	0	32912	
2067	0	32880	
2068	0	32812	
2069	0	32749	
2070	0	32692	
2071	0	32740	
2072	0	32668	
2073	0	32660	
2074	0	32764	
2075	0	32712	
2076	0	32752	
2077	0	32760	
2078	0	32806	
2079	0	32829	
2080	0	32844	
2081	0	32876	
2082	0	32868	
2083	0	32824	
2084	0	32786	
2085	0	32772	
2086	0	32872	
2087	0	32740	
2088	0	32788	
2089	0	32668	
2090	0	32936	
2091	0	32684	
2092	0	32644	
2093	0	32668	
2094	0	32740	
2095	0	32736	
2096	0	32752	
2097	0	32774	
2098	0	32796	
2099	0	32876	
2100	0	32811	
2101	0	32756	
2102	0	32844	
2103	0	32692	
2104	0	32844	
2105	0	32832	
2106	0	32812	
2107	0	32742	
2108	0	32700	
2109	0	32752	
2110	0	32736	
2111	0	32788	
2112	0	32728	
2113	0	32757	
2114	0	32752	
2115	0	32736	
2116	0	32748	
2117	0	32728	
2118	0	32796	
2119	0	32781	
2120	0	32880	
2121	0	32880	
2122	0	32868	
2123	0	32832	
2124	0	32900	
2125	0	32860	
2126	0	32796	
2127	0	32824	
2128	0	32740	
2129	0	32780	
2130	0	32684	
2131	0	32644	
2132	0	32740	
2133	0	32664	
2134	0	32705	
2135	0	32888	
2136	0	32780	
2137	0	32772	
2138	0	32780	
2139	0	32737	
2140	0	32748	
2141	0	32836	
2142	0	32892	
2143	0	32932	
2144	0	32836	
2145	0	32740	
2146	0	32760	
2147	0	32788	
2148	0	32740	
2149	0	32710	
2150	0	32760	
2151	0	32660	
2152	0	32672	
2153	0	32670	
2154	0	32740	
2155	0	32826	
2156	0	32860	
2157	0	32901	
2158	0	32772	
2159	0	32766	
2160	0	32908	
2161	0	32808	
2162	0	32812	
2163	0	32744	
2164	0	32777	
2165	0	32836	
2166	0	32864	
2167	0	32788	
2168	0	32708	
2169	0	32716	
2170	0	32712	
2171	0	32740	
2172	0	32760	
2173	0	32748	
2174	0	32760	
2175	0	32724	
2176	0	32808	
2177	0	32804	
2178	0	32796	
2179	0	32856	
2180	0	32872	
2181	0	32861	
2182	0	32806	
2183	0	32836	
2184	0	32860	
2185	0	32758	
2186	0	32676	
2187	0	32708	
2188	0	32804	
2189	0	32836	
2190	0	32740	
2191	0	32708	
2192	0	32724	
2193	0	32729	
2194	0	32740	
2195	0	32850	
2196	0	32788	
2197	0	32756	
2198	0	32812	
2199	0	32792	
2200	0	32812	
2201	0	32809	
2202	0	32813	
2203	0	32796	
2204	0	32798	
2205	0	32796	
2206	0	32860	
2207	0	32748	
2208	0	32726	
2209	0	32736	
2210	0	32788	
2211	0	32796	
2212	0	32676	
2213	0	32709	
2214	0	32812	
2215	0	32788	
2216	0	32776	
2217	0	32724	
2218	0	32716	
2219	0	32812	
2220	0	32804	
2221	0	32872	
2222	0	32876	
2223	0	32921	
2224	0	32808	
2225	0	32825	
2226	0	32768	
2227	0	32740	
2228	0	32832	
2229	0	32673	
2230	0	32705	
2231	0	32717	
2232	0	32770	
2233	0	32716	
2234	0	32742	
2235	0	32822	
2236	0	32792	
2237	0	32718	
2238	0	32792	
2239	0	32832	
2240	0	32916	
2241	0	32892	
2242	0	32879	
2243	0	32844	
2244	0	32900	
2245	0	32804	
2246	0	32774	
2247	0	32740	
2248	0	32808	
2249	0	32856	
2250	0	32596	
2251	0	32680	
2252	0	32676	
2253	0	32697	
2254	0	32712	
2255	0	32712	
2256	0	32772	
2257	0	32780	
2258	0	32764	
2259	0	32700	
2260	0	32756	
2261	0	32821	
2262	0	32960	
2263	0	33021	
2264	0	32996	
2265	0	32809	
2266	0	32744	
2267	0	32749	
2268	0	32692	
2269	0	32700	
2270	0	32716	
2271	0	32692	
2272	0	32720	
2273	0	32856	
2274	0	32800	
2275	0	32756	
2276	0	32768	
2277	0	32812	
2278	0	32800	
2279	0	32796	
2280	0	32828	
2281	0	32762	
2282	0	32836	
2283	0	32852	
2284	0	32828	
2285	0	32782	
2286	0	32836	
2287	0	32798	
2288	0	32686	
2289	0	32740	
2290	0	32758	
2291	0	32740	
2292	0	32716	
2293	0	32592	
2294	0	32708	
2295	0	32804	
2296	0	32864	
2297	0	32828	
2298	0	32744	
2299	0	32660	
2300	0	32740	
2301	0	32880	
2302	0	32966	
2303	0	32870	
2304	0	32888	
2305	0	32770	
2306	0	32737	
2307	0	32744	
2308	0	32732	
2309	0	32710	
2310	0	32684	
2311	0	32680	
2312	0	32700	
2313	0	32736	
2314	0	32652	
2315	0	32832	
2316	0	32784	
2317	0	32780	
2318	0	32816	
2319	0	32812	
2320	0	32784	
2321	0	32800	
2322	0	32816	
2323	0	32876	
2324	0	32800	
2325	0	32856	
2326	0	32756	
2327	0	32868	
2328	0	32737	
2329	0	32760	
2330	0	32721	
2331	0	32720	
2332	0	32744	
2333	0	32720	
2334	0	32776	
2335	0	32740	
2336	0	32708	
2337	0	32756	
2338	0	32808	
2339	0	32840	
2340	0	32870	
2341	0	32837	
2342	0	32900	
2343	0	32888	
2344	0	32760	
2345	0	32752	
2346	0	32705	
2347	0	32916	
2348	0	32844	
2349	0	32796	
2350	0	32660	
2351	0	32652	
2352	0	32728	
2353	0	32944	
2354	0	32776	
2355	0	32656	
2356	0	32724	
2357	0	32796	
2358	0	32796	
2359	0	32824	
2360	0	32780	
2361	0	32856	
2362	0	32832	
2363	0	32865	
2364	0	32780	
2365	0	32896	
2366	0	32772	
2367	0	32836	
2368	0	32772	
2369	0	32680	
2370	0	32756	
2371	0	32775	
2372	0	32676	
2373	0	32684	
2374	0	32676	
2375	0	32780	
2376	0	32756	
2377	0	32780	
2378	0	32824	
2379	0	32794	
2380	0	32780	
2381	0	32820	
2382	0	32884	
2383	0	32868	
2384	0	32878	
2385	0	32804	
2386	0	32788	
2387	0	32812	
2388	0	32736	
2389	0	32814	
2390	0	32696	
2391	0	32764	
2392	0	32752	
2393	0	32576	
2394	0	32716	
2395	0	32752	
2396	0	32761	
2397	0	32740	
2398	0	32788	
2399	0	32741	
2400	0	32821	
2401	0	32860	
2402	0	32940	
2403	0	32828	
2404	0	32868	
2405	0	32798	
2406	0	32832	
2407	0	32892	
2408	0	32724	
2409	0	32737	
2410	0	32708	
2411	0	32752	
2412	0	32792	
2413	0	32728	
2414	0	32692	
2415	0	32864	
2416	0	32832	
2417	0	32736	
2418	0	32776	
2419	0	32728	
2420	0	32836	
2421	0	32813	
2422	0	32836	
2423	0	32896	
2424	0	32912	
2425	0	32764	
2426	0	32748	
2427	0	32720	
2428	0	32764	
2429	0	32876	
2430	0	32752	
2431	0	32684	
2432	0	32676	
2433	0	32661	
2434	0	32692	
2435	0	32716	
2436	0	32741	
2437	0	32740	
2438	0	32840	
2439	0	32840	
2440	0	32952	
2441	0	32860	
2442	0	32836	
2443	0	32822	
2444	0	32808	
2445	0	32708	
2446	0	32816	
2447	0	32856	
2448	0	32808	
2449	0	32750	
2450	0	32688	
2451	0	32653	
2452	0	32736	
2453	0	32774	
2454	0	32724	
2455	0	32716	
2456	0	32762	
2457	0	32852	
2458	0	32800	
2459	0	32796	
2460	0	32879	
2461	0	32821	
2462	0	32836	
2463	0	32809	
2464	0	32768	
2465	0	32829	
2466	0	32749	
2467	0	32716	
2468	0	32692	
2469	0	32756	
2470	0	32788	
2471	0	32782	
2472	0	32809	
2473	0	32708	
2474	0	32772	
2475	0	32804	
2476	0	32736	
2477	0	32756	
2478	0	32840	
2479	0	32780	
2480	0	32737	
2481	0	32837	
2482	0	32844	
2483	0	32820	
2484	0	32868	
2485	0	32868	
2486	0	32856	
2487	0	32784	
2488	0	32749	
2489	0	32732	
2490	0	32716	
2491	0	32668	
2492	0	32680	
2493	0	32672	
2494	0	32784	
2495	0	32770	
2496	0	32836	
2497	0	32752	
2498	0	32790	
2499	0	32772	
2500	0	32825	
2501	0	32856	
2502	0	32820	
2503	0	32844	
2504	0	32870	
2505	0	32864	
2506	0	32800	
2507	0	32736	
2508	0	32724	
2509	0	32720	
2510	0	32696	
2511	0	32704	
2512	0	32677	
2513	0	32756	
2514	0	32748	
2515	0	32872	
2516	0	32772	
2517	0	32774	
2518	0	32788	
2519	0	32844	
2520	0	32868	
2521	0	32892	
2522	0	32862	
2523	0	32812	
2524	0	32773	
2525	0	32760	
2526	0	32772	
2527	0	32880	
2528	0	32872	
2529	0	32831	
2530	0	32706	
2531	0	32685	
2532	0	32704	
2533	0	32692	
2534	0	32660	
2535	0	32773	
2536	0	32752	
2537	0	32788	
2538	0	32765	
2539	0	32860	
2540	0	32788	
2541	0	32816	
2542	0	32848	
2543	0	32848	
2544	0	32812	
2545	0	32825	
2546	0	32696	
2547	0	32685	
2548	0	32778	
2549	0	32724	
2550	0	32756	
2551	0	32774	
2552	0	32781	
2553	0	32748	
2554	0	32724	
2555	0	32780	
2556	0	32736	
2557	0	32784	
2558	0	32792	
2559	0	32824	
2560	0	32765	
2561	0	32816	
2562	0	32838	
2563	0	32864	
2564	0	32768	
2565	0	32784	
2566	0	32752	
2567	0	32793	
2568	0	32788	
2569	0	32736	
2570	0	32724	
2571	0	32788	
2572	0	32744	
2573	0	32669	
2574	0	32728	
2575	0	32744	
2576	0	32832	
2577	0	32864	
2578	0	32780	
2579	0	32740	
2580	0	32832	
2581	0	32852	
2582	0	32792	
2583	0	32844	
2584	0	32877	
2585	0	32782	
2586	0	32764	
2587	0	32680	
2588	0	32772	
2589	0	32704	
2590	0	32728	
2591	0	32744	
2592	0	32728	
2593	0	32700	
2594	0	32864	
2595	0	32760	
2596	0	32676	
2597	0	32684	
2598	0	32765	
2599	0	32764	
2600	0	32860	
2601	0	32868	
2602	0	33048	
2603	0	32885	
2604	0	32808	
2605	0	32762	
2606	0	32800	
2607	0	32708	
2608	0	32764	
2609	0	32792	
2610	0	32676	
2611	0	32750	
2612	0	32832	
2613	0	32754	
2614	0	32696	
2615	0	32728	
2616	0	32760	
2617	0	32792	
2618	0	32832	
2619	0	32764	
2620	0	32832	
2621	0	32800	
2622	0	32820	
2623	0	32804	
2624	0	32980	
2625	0	32910	
2626	0	32661	
2627	0	32704	
2628	0	32724	
2629	0	32809	
2630	0	32749	
2631	0	32768	
2632	0	32720	
2633	0	32820	
2634	0	32688	
2635	0	32804	
2636	0	32768	
2637	0	32760	
2638	0	32742	
2639	0	32822	
2640	0	32836	
2641	0	32832	
2642	0	32812	
2643	0	32836	
2644	0	32844	
2645	0	32788	
2646	0	32752	
2647	0	32788	
2648	0	32760	
2649	0	32733	
2650	0	32748	
2651	0	32693	
2652	0	32644	
2653	0	32785	
2654	0	32877	
2655	0	32760	
2656	0	32804	
2657	0	32804	
2658	0	32785	
2659	0	32772	
2660	0	32716	
2661	0	32798	
2662	0	32796	
2663	0	32860	
2664	0	32820	
2665	0	32796	
2666	0	32768	
2667	0	32781	
2668	0	32792	
2669	0	32748	
2670	0	32792	
2671	0	32820	
2672	0	32804	
2673	0	32744	
2674	0	32712	
2675	0	32696	
2676	0	32644	
2677	0	32869	
2678	0	32896	
2679	0	32854	
2680	0	32824	
2681	0	32740	
2682	0	32816	
2683	0	32800	
2684	0	32860	
2685	0	32846	
2686	0	32772	
2687	0	32812	
2688	0	32700	
2689	0	32752	
2690	0	32692	
2691	0	32812	
2692	0	32792	
2693	0	32764	
2694	0	32724	
2695	0	32724	
2696	0	32772	
2697	0	32760	
2698	0	32812	
2699	0	32912	
2700	0	32784	
2701	0	32788	
2702	0	32760	
2703	0	32824	
2704	0	32861	
2705	0	32772	
2706	0	32744	
2707	0	32696	
2708	0	32676	
2709	0	32836	
2710	0	32840	
2711	0	32764	
2712	0	32852	
2713	0	32748	
2714	0	32744	
2715	0	32768	
2716	0	32708	
2717	0	32812	
2718	0	32764	
2719	0	32800	
2720	0	32832	
2721	0	32837	
2722	0	32808	
2723	0	32848	
2724	0	32836	
2725	0	32852	
2726	0	32748	
2727	0	32768	
2728	0	32684	
2729	0	32724	
2730	0	32704	
2731	0	32668	
2732	0	32749	
2733	0	32756	
2734	0	32696	
2735	0	32716	
2736	0	32808	
2737	0	32868	
2738	0	32808	
2739	0	32856	
2740	0	32828	
2741	0	32840	
2742	0	32972	
2743	0	32928	
2744	0	32768	
2745	0	32736	
2746	0	32736	
2747	0	32756	
2748	0	32780	
2749	0	32716	
2750	0	32704	
2751	0	32676	
2752	0	32756	
2753	0	32701	
2754	0	32660	
2755	0	32708	
2756	0	32768	
2757	0	32762	
2758	0	32904	
2759	0	32916	
2760	0	32776	
2761	0	32766	
2762	0	32832	
2763	0	32812	
2764	0	32868	
2765	0	32816	
2766	0	32794	
2767	0	32864	
2768	0	32804	
2769	0	32800	
2770	0	32713	
2771	0	32696	
2772	0	32684	
2773	0	32697	
2774	0	32756	
2775	0	32750	
2776	0	32757	
2777	0	32748	
2778	0	32816	
2779	0	32825	
2780	0	32808	
2781	0	32856	
2782	0	32836	
2783	0	32868	
2784	0	32840	
2785	0	32808	
2786	0	32765	
2787	0	32804	
2788	0	32789	
2789	0	32760	
2790	0	32764	
2791	0	32768	
2792	0	32752	
2793	0	32756	
2794	0	32681	
2795	0	32752	
2796	0	32788	
2797	0	32748	
2798	0	32752	
2799	0	32776	
2800	0	32845	
2801	0	32780	
2802	0	32848	
2803	0	32830	
2804	0	32864	
2805	0	32816	
2806	0	32764	
2807	0	32852	
2808	0	32752	
2809	0	32780	
2810	0	32666	
2811	0	32701	
2812	0	32676	
2813	0	32604	
2814	0	32685	
2815	0	32752	
2816	0	32996	
2817	0	32820	
2818	0	32772	
2819	0	32812	
2820	0	32854	
2821	0	32932	
2822	0	32853	
2823	0	32768	
2824	0	32812	
2825	0	32796	
2826	0	32792	
2827	0	32756	
2828	0	32776	
2829	0	32800	
2830	0	32764	
2831	0	32804	
2832	0	32729	
2833	0	32653	
2834	0	32748	
2835	0	32724	
2836	0	32760	
2837	0	32776	
2838	0	32756	
2839	0	32841	
2840	0	32806	
2841	0	32862	
2842	0	32696	
2843	0	32817	
2844	0	32815	
2845	0	32788	
2846	0	32856	
2847	0	32886	
2848	0	32780	
2849	0	32776	
2850	0	32653	
2851	0	32708	
2852	0	32832	
2853	0	32756	
2854	0	32729	
2855	0	32737	
2856	0	32762	
2857	0	32712	
2858	0	32854	
2859	0	32908	
2860	0	32888	
2861	0	32820	
2862	0	32916	
2863	0	32808	
2864	0	32805	
2865	0	32876	
2866	0	32776	
2867	0	32742	
2868	0	32716	
2869	0	32748	
2870	0	32749	
2871	0	32726	
2872	0	32820	
2873	0	32692	
2874	0	32696	
2875	0	32720	
2876	0	32828	
2877	0	32772	
2878	0	32692	
2879	0	32720	
2880	0	32792	
2881	0	32824	
2882	0	32960	
2883	0	32997	
2884	0	32864	
2885	0	32816	
2886	0	32740	
2887	0	32712	
2888	0	32668	
2889	0	32700	
2890	0	32732	
2891	0	32732	
2892	0	32692	
2893	0	32768	
2894	0	32698	
2895	0	32756	
2896	0	32704	
2897	0	32785	
2898	0	32768	
2899	0	32949	
2900	0	32940	
2901	0	32820	
2902	0	32766	
2903	0	32808	
2904	0	32780	
2905	0	32800	
2906	0	32776	
2907	0	32732	
2908	0	32764	
2909	0	32774	
2910	0	32764	
2911	0	32700	
2912	0	32708	
2913	0	32662	
2914	0	32734	
2915	0	32762	
2916	0	32808	
2917	0	32782	
2918	0	32816	
2919	0	32812	
2920	0	32801	
2921	0	32900	
2922	0	32829	
2923	0	32896	
2924	0	32800	
2925	0	32798	
2926	0	32740	
2927	0	32825	
2928	0	32752	
2929	0	32730	
2930	0	32712	
2931	0	32740	
2932	0	32720	
2933	0	32692	
2934	0	32708	
2935	0	32750	
2936	0	32770	
2937	0	32832	
2938	0	32776	
2939	0	32752	
2940	0	32840	
2941	0	32832	
2942	0	32824	
2943	0	32856	
2944	0	32824	
2945	0	32812	
2946	0	32796	
2947	0	32792	
2948	0	32760	
2949	0	32782	
2950	0	32692	
2951	0	32736	
2952	0	32728	
2953	0	32712	
2954	0	32768	
2955	0	32728	
2956	0	32740	
2957	0	32832	
2958	0	32848	
2959	0	32848	
2960	0	32816	
2961	0	32824	
2962	0	32852	
2963	0	32852	
2964	0	32820	
2965	0	32836	
2966	0	32852	
2967	0	32784	
2968	0	32740	
2969	0	32684	
2970	0	32637	
2971	0	32692	
2972	0	32680	
2973	0	32588	
2974	0	32804	
2975	0	32736	
2976	0	32796	
2977	0	32844	
2978	0	33006	
2979	0	32925	
2980	0	32836	
2981	0	32853	
2982	0	32816	
2983	0	32692	
2984	0	32812	
2985	0	32768	
2986	0	32742	
2987	0	32684	
2988	0	32797	
2989	0	32812	
2990	0	32740	
2991	0	32724	
2992	0	32760	
2993	0	32732	
2994	0	32756	
2995	0	32822	
2996	0	32732	
2997	0	32768	
2998	0	32772	
2999	0	32792	
3000	0	32808	
3001	0	32812	
3002	0	32878	
3003	0	32868	
3004	0	32856	
3005	0	32884	
3006	0	32808	
3007	0	32748	
3008	0	32764	
3009	0	32780	
3010	0	32708	
3011	0	32686	
3012	0	32702	
3013	0	32664	
3014	0	32756	
3015	0	32776	
3016	0	32752	
3017	0	32820	
3018	0	32804	
3019	0	32756	
3020	0	32868	
3021	0	32825	
3022	0	32784	
3023	0	32792	
3024	0	32764	
3025	0	32948	
3026	0	32860	
3027	0	32876	
3028	0	32709	
3029	0	32736	
3030	0	32696	
3031	0	32700	
3032	0	32688	
3033	0	32740	
3034	0	32698	
3035	0	32768	
3036	0	32756	
3037	0	32760	
3038	0	32813	
3039	0	32824	
3040	0	32788	
3041	0	32804	
3042	0	32829	
3043	0	32808	
3044	0	32877	
3045	0	32756	
3046	0	32804	
3047	0	32752	
3048	0	32680	
3049	0	32760	
3050	0	32737	
3051	0	32736	
3052	0	32792	
3053	0	32740	
3054	0	32712	
3055	0	32797	
3056	0	32784	
3057	0	32788	
3058	0	32793	
3059	0	32788	
3060	0	32796	
3061	0	32868	
3062	0	32876	
3063	0	32774	
3064	0	32828	
3065	0	32868	
3066	0	32824	
3067	0	32740	
3068	0	32736	
3069	0	32718	
3070	0	32733	
3071	0	32736	
3072	0	32697	
3073	0	32677	
3074	0	32724	
3075	0	32756	
3076	0	32844	
3077	0	32848	
3078	0	32796	
3079	0	32828	
3080	0	32876	
3081	0	32878	
3082	0	32832	
3083	0	32884	
3084	0	32854	
3085	0	32820	
3086	0	32732	
3087	0	32744	
3088	0	32720	
3089	0	32732	
3090	0	32648	
3091	0	32716	
3092	0	32664	
3093	0	32764	
3094	0	32828	
3095	0	32781	
3096	0	32800	
3097	0	32776	
3098	0	32748	
3099	0	32798	
3100	0	32823	
3101	0	32849	
3102	0	32804	
3103	0	32856	
3104	0	32800	
3105	0	32768	
3106	0	32864	
3107	0	32804	
3108	0	32764	
3109	0	32717	
3110	0	32768	
3111	0	32696	
3112	0	32709	
3113	0	32704	
3114	0	32778	
3115	0	32780	
3116	0	32760	
3117	0	32788	
3118	0	32856	
3119	0	32820	
3120	0	32840	
3121	0	32892	
3122	0	32878	
3123	0	32832	
3124	0	32788	
3125	0	32793	
3126	0	32773	
3127	0	32752	
3128	0	32736	
3129	0	32820	
3130	0	32784	
3131	0	32672	
3132	0	32689	
3133	0	32745	
3134	0	32708	
3135	0	32696	
3136	0	32708	
3137	0	32864	
3138	0	32941	
3139	0	32896	
3140	0	32780	
3141	0	32873	
3142	0	32872	
3143	0	32760	
3144	0	32832	
3145	0	32820	
3146	0	32780	
3147	0	32868	
3148	0	32760	
3149	0	32749	
3150	0	32684	
3151	0	32764	
3152	0	32704	
3153	0	32744	
3154	0	32657	
3155	0	32720	
3156	0	32744	
3157	0	32720	
3158	0	32876	
3159	0	32878	
3160	0	32824	
3161	0	32900	
3162	0	32804	
3163	0	32788	
3164	0	32940	
3165	0	32789	
3166	0	32768	
3167	0	32760	
3168	0	32688	
3169	0	32732	
3170	0	32752	
3171	0	32764	
3172	0	32712	
3173	0	32684	
3174	0	32708	
3175	0	32780	
3176	0	32786	
3177	0	32832	
3178	0	32744	
3179	0	32857	
3180	0	32868	
3181	0	32812	
3182	0	32832	
3183	0	32840	
3184	0	32844	
3185	0	32828	
3186	0	32764	
3187	0	32756	
3188	0	32782	
3189	0	32693	
3190	0	32720	
3191	0	32712	
3192	0	32828	
3193	0	32760	
3194	0	32728	
3195	0	32672	
3196	0	32716	
3197	0	32840	
3198	0	32832	
3199	0	32728	
3200	0	32776	
3201	0	32856	
3202	0	32888	
3203	0	32852	
3204	0	32824	
3205	0	32804	
3206	0	32744	
3207	0	32756	
3208	0	32760	
3209	0	32696	
3210	0	32696	
3211	0	32712	
3212	0	32741	
3213	0	32740	
3214	0	32728	
3215	0	32772	
3216	0	32828	
3217	0	32824	
3218	0	32790	
3219	0	32820	
3220	0	32776	
3221	0	32844	
3222	0	32808	
3223	0	32820	
3224	0	32793	
3225	0	32736	
3226	0	32824	
3227	0	32732	
3228	0	32788	
3229	0	32738	
3230	0	32764	
3231	0	32644	
3232	0	32756	
3233	0	32720	
3234	0	32796	
3235	0	32720	
3236	0	32800	
3237	0	32832	
3238	0	32780	
3239	0	32840	
3240	0	32832	
3241	0	32800	
3242	0	32868	
3243	0	32816	
3244	0	32900	
3245	0	32804	
3246	0	32824	
3247	0	32780	
3248	0	32772	
3249	0	32708	
3250	0	32781	
3251	0	32712	
3252	0	32740	
3253	0	32685	
3254	0	32676	
3255	0	32721	
3256	0	32724	
3257	0	32660	
3258	0	32744	
3259	0	32765	
3260	0	32858	
3261	0	33060	
3262	0	32968	
3263	0	32792	
3264	0	32836	
3265	0	32932	
3266	0	32844	
3267	0	32756	
3268	0	32656	
3269	0	32633	
3270	0	32670	
3271	0	32708	
3272	0	32648	
3273	0	32692	
3274	0	32724	
3275	0	32674	
3276	0	32736	
3277	0	32748	
3278	0	32797	
3279	0	32868	
3280	0	32885	
3281	0	32910	
3282	0	32856	
3283	0	32776	
3284	0	32832	
3285	0	32828	
3286	0	32820	
3287	0	32740	
3288	0	32836	
3289	0	32828	
3290	0	32648	
3291	0	32636	
3292	0	32760	
3293	0	32716	
3294	0	32716	
3295	0	32768	
3296	0	32813	
3297	0	32852	
3298	0	32800	
3299	0	32774	
3300	0	32776	
3301	0	32817	
3302	0	32832	
3303	0	32772	
3304	0	32886	
3305	0	32878	
3306	0	32724	
3307	0	32748	
3308	0	32780	
3309	0	32693	
3310	0	32744	
3311	0	32804	
3312	0	32660	
3313	0	32714	
3314	0	32744	
3315	0	32740	
3316	0	32776	
3317	0	32804	
3318	0	32820	
3319	0	32804	
3320	0	32766	
3321	0	32814	
3322	0	32877	
3323	0	32828	
3324	0	32856	
3325	0	32824	
3326	0	32868	
3327	0	32818	
3328	0	32772	
3329	0	32758	
3330	0	32664	
3331	0	32648	
3332	0	32736	
3333	0	32776	
3334	0	32760	
3335	0	32772	
3336	0	32712	
3337	0	32740	
3338	0	32724	
3339	0	32876	
3340	0	32796	
3341	0	32830	
3342	0	32908	
3343	0	32892	
3344	0	32832	
3345	0	32796	
3346	0	32820	
3347	0	32736	
3348	0	32808	
3349	0	32772	
3350	0	32758	
3351	0	32730	
3352	0	32712	
3353	0	32720	
3354	0	32736	
3355	0	32680	
3356	0	32736	
3357	0	32784	
3358	0	32800	
3359	0	32812	
3360	0	32822	
3361	0	32772	
3362	0	32868	
3363	0	32904	
3364	0	32884	
3365	0	32756	
3366	0	32776	
3367	0	32728	
3368	0	32775	
3369	0	32738	
3370	0	32784	
3371	0	32692	
3372	0	32704	
3373	0	32732	
3374	0	32752	
3375	0	32676	
3376	0	32749	
3377	0	32850	
3378	0	32828	
3379	0	32856	
3380	0	32877	
3381	0	32846	
3382	0	32832	
3383	0	32868	
3384	0	32836	
3385	0	32786	
3386	0	32752	
3387	0	32788	
3388	0	32744	
3389	0	32776	
3390	0	32708	
3391	0	32696	
3392	0	32604	
3393	0	32689	
3394	0	32784	
3395	0	32824	
3396	0	32836	
3397	0	32892	
3398	0	32800	
3399	0	32821	
3400	0	32772	
3401	0	32768	
3402	0	32836	
3403	0	32856	
3404	0	32808	
3405	0	32744	
3406	0	32740	
3407	0	32744	
3408	0	32724	
3409	0	32676	
3410	0	32752	
3411	0	32860	
3412	0	32684	
3413	0	32664	
3414	0	32788	
3415	0	32816	
3416	0	32880	
3417	0	32868	
3418	0	32748	
3419	0	32757	
3420	0	32852	
3421	0	32940	
3422	0	32804	
3423	0	32796	
3424	0	32772	
3425	0	32788	
3426	0	32748	
3427	0	32792	
3428	0	32856	
3429	0	32844	
3430	0	32688	
3431	0	32624	
3432	0	32775	
3433	0	32680	
3434	0	32680	
3435	0	32756	
3436	0	32821	
3437	0	32740	
3438	0	32824	
3439	0	32808	
3440	0	32837	
3441	0	32876	
3442	0	32824	
3443	0	32852	
3444	0	32816	
3445	0	32788	
3446	0	32772	
3447	0	32785	
3448	0	32780	
3449	0	32732	
3450	0	32756	
3451	0	32716	
3452	0	32680	
3453	0	32756	
3454	0	32765	
3455	0	32772	
3456	0	32724	
3457	0	32720	
3458	0	32788	
3459	0	32800	
3460	0	32800	
3461	0	32872	
3462	0	32894	
3463	0	32948	
3464	0	32748	
3465	0	32774	
3466	0	32764	
3467	0	32736	
3468	0	32790	
3469	0	32736	
3470	0	32696	
3471	0	32725	
3472	0	32880	
3473	0	32762	
3474	0	32636	
3475	0	32700	
3476	0	32720	
3477	0	32768	
3478	0	32804	
3479	0	32796	
3480	0	32824	
3481	0	32806	
3482	0	32798	
3483	0	32748	
3484	0	32896	
3485	0	32876	
3486	0	32772	
3487	0	32727	
3488	0	32794	
3489	0	32756	
3490	0	32646	
3491	0	32748	
3492	0	32712	
3493	0	32741	
3494	0	32744	
3495	0	32732	
3496	0	32808	
3497	0	32832	
3498	0	32740	
3499	0	32804	
3500	0	32836	
3501	0	32849	
3502	0	32880	
3503	0	32837	
3504	0	32864	
3505	0	32912	
3506	0	32762	
3507	0	32760	
3508	0	32748	
3509	0	32768	
3510	0	32684	
3511	0	32728	
3512	0	32700	
3513	0	32714	
3514	0	32736	
3515	0	32840	
3516	0	32750	
3517	0	32776	
3518	0	32728	
3519	0	32825	
3520	0	32896	
3521	0	32912	
3522	0	32900	
3523	0	32796	
3524	0	32820	
3525	0	32756	
3526	0	32764	
3527	0	32816	
3528	0	32752	
3529	0	32768	
3530	0	32692	
3531	0	32653	
3532	0	32772	
3533	0	32720	
3534	0	32652	
3535	0	32748	
3536	0	32780	
3537	0	32772	
3538	0	32720	
3539	0	32800	
3540	0	32792	
3541	0	32884	
3542	0	33120	
3543	0	32916	
3544	0	32864	
3545	0	32772	
3546	0	32697	
3547	0	32692	
3548	0	32766	
3549	0	32768	
3550	0	32808	
3551	0	32772	
3552	0	32776	
3553	0	32676	
3554	0	32724	
3555	0	32760	
3556	0	32756	
3557	0	32732	
3558	0	32764	
3559	0	32772	
3560	0	32868	
3561	0	32820	
3562	0	32804	
3563	0	32852	
3564	0	32848	
3565	0	32792	
3566	0	32816	
3567	0	32824	
3568	0	32724	
3569	0	32766	
3570	0	32684	
3571	0	32696	
3572	0	32688	
3573	0	32740	
3574	0	32772	
3575	0	32692	
3576	0	32804	
3577	0	32892	
3578	0	32748	
3579	0	32792	
3580	0	32785	
3581	0	32836	
3582	0	32846	
3583	0	32784	
3584	0	32869	
3585	0	32821	
3586	0	32820	
3587	0	32705	
3588	0	32804	
3589	0	32800	
3590	0	32844	
3591	0	32740	
3592	0	32660	
3593	0	32692	
3594	0	32680	
3595	0	32688	
3596	0	32813	
3597	0	32792	
3598	0	32780	
3599	0	32792	
3600	0	32829	
3601	0	32864	
3602	0	32804	
3603	0	32884	
3604	0	32848	
3605	0	32804	
3606	0	32784	
3607	0	32852	
3608	0	32800	
3609	0	32762	
3610	0	32856	
3611	0	32716	
3612	0	32677	
3613	0	32660	
3614	0	32708	
3615	0	32786	
3616	0	32752	
3617	0	32708	
3618	0	32812	
3619	0	32824	
3620	0	32820	
3621	0	32784	
3622	0	32836	
3623	0	32897	
3624	0	32840	
3625	0	32805	
3626	0	32757	
3627	0	32772	
3628	0	32748	
3629	0	32824	
3630	0	32700	
3631	0	32664	
3632	0	32720	
3633	0	32668	
3634	0	32738	
3635	0	32749	
3636	0	32784	
3637	0	32757	
3638	0	32796	
3639	0	32792	
3640	0	32856	
3641	0	32788	
3642	0	32808	
3643	0	32844	
3644	0	32909	
3645	0	32806	
3646	0	32809	
3647	0	32812	
3648	0	32744	
3649	0	32748	
3650	0	32688	
3651	0	32700	
3652	0	32685	
3653	0	32700	
3654	0	32772	
3655	0	32796	
3656	0	32783	
3657	0	32732	
3658	0	32756	
3659	0	32816	
3660	0	32880	
3661	0	32868	
3662	0	32824	
3663	0	32837	
3664	0	32804	
3665	0	32796	
3666	0	32784	
3667	0	32772	
3668	0	32816	
3669	0	32752	
3670	0	32724	
3671	0	32716	
3672	0	32696	
3673	0	32804	
3674	0	32816	
3675	0	32688	
3676	0	32736	
3677	0	32772	
3678	0	32826	
3679	0	32756	
3680	0	32740	
3681	0	32724	
3682	0	32848	
3683	0	32924	
3684	0	32868	
3685	0	32804	
3686	0	32710	
3687	0	32665	
3688	0	32660	
3689	0	32796	
3690	0	32812	
3691	0	32816	
3692	0	32724	
3693	0	32760	
3694	0	32753	
3695	0	32772	
3696	0	32752	
3697	0	32756	
3698	0	32708	
3699	0	32741	
3700	0	32832	
3701	0	32820	
3702	0	32816	
3703	0	32788	
3704	0	32804	
3705	0	32826	
3706	0	32768	
3707	0	32777	
3708	0	32748	
3709	0	32724	
3710	0	32793	
3711	0	32696	
3712	0	32788	
3713	0	32756	
3714	0	32748	
3715	0	32733	
3716	0	32764	
3717	0	32804	
3718	0	32732	
3719	0	32812	
3720	0	32908	
3721	0	32868	
3722	0	32760	
3723	0	32824	
3724	0	32860	
3725	0	32808	
3726	0	32760	
3727	0	32753	
3728	0	32784	
3729	0	32890	
3730	0	32753	
3731	0	32576	
3732	0	32583	
3733	0	32676	
3734	0	32612	
3735	0	32752	
3736	0	32877	
3737	0	32876	
3738	0	32796	
3739	0	32792	
3740	0	32822	
3741	0	32852	
3742	0	32868	
3743	0	32780	
3744	0	32797	
3745	0	32800	
3746	0	32828	
3747	0	32728	
3748	0	32688	
3749	0	32736	
3750	0	32712	
3751	0	32772	
3752	0	32712	
3753	0	32728	
3754	0	32756	
3755	0	32740	
3756	0	32812	
3757	0	32812	
3758	0	32800	
3759	0	32808	
3760	0	32824	
3761	0	32800	
3762	0	32820	
3763	0	32824	
3764	0	32768	
3765	0	32836	
3766	0	32792	
3767	0	32752	
3768	0	32768	
3769	0	32816	
3770	0	32769	
3771	0	32692	
3772	0	32760	
3773	0	32708	
3774	0	32697	
3775	0	32768	
3776	0	32773	
3777	0	32784	
3778	0	32780	
3779	0	32768	
3780	0	32948	
3781	0	32880	
3782	0	32808	
3783	0	32832	
3784	0	32924	
3785	0	32732	
3786	0	32744	
3787	0	32748	
3788	0	32764	
3789	0	32744	
3790	0	32740	
3791	0	32676	
3792	0	32668	
3793	0	32672	
3794	0	32772	
3795	0	32856	
3796	0	32693	
3797	0	32761	
3798	0	32748	
3799	0	32820	
3800	0	32832	
3801	0	32804	
3802	0	32821	
3803	0	32801	
3804	0	32800	
3805	0	32928	
3806	0	32828	
3807	0	32812	
3808	0	32789	
3809	0	32720	
3810	0	32692	
3811	0	32704	
3812	0	32740	
3813	0	32672	
3814	0	32708	
3815	0	32802	
3816	0	32792	
3817	0	32824	
3818	0	32848	
3819	0	32852	
3820	0	32756	
3821	0	32876	
3822	0	32852	
3823	0	32816	
3824	0	32786	
3825	0	32760	
3826	0	32796	
3827	0	32796	
3828	0	32781	
3829	0	32824	
3830	0	32704	
3831	0	32728	
3832	0	32685	
3833	0	32704	
3834	0	32700	
3835	0	32672	
3836	0	32856	
3837	0	32876	
3838	0	32796	
3839	0	32780	
3840	0	32748	
3841	0	32736	
3842	0	32916	
3843	0	32903	
3844	0	32880	
3845	0	32941	
3846	0	32780	
3847	0	32780	
3848	0	32688	
3849	0	32628	
3850	0	32668	
3851	0	32724	
3852	0	32756	
3853	0	32828	
3854	0	32804	
3855	0	32780	
3856	0	32788	
3857	0	32767	
3858	0	32772	
3859	0	32752	
3860	0	32766	
3861	0	32794	
3862	0	32848	
3863	0	32878	
3864	0	32868	
3865	0	32860	
3866	0	32826	
3867	0	32732	
3868	0	32728	
3869	0	32700	
3870	0	32648	
3871	0	32673	
3872	0	32750	
3873	0	32774	
3874	0	32848	
3875	0	32704	
3876	0	32782	
3877	0	32776	
3878	0	32758	
3879	0	32792	
3880	0	32736	
3881	0	32820	
3882	0	32855	
3883	0	32932	
3884	0	32842	
3885	0	32868	
3886	0	32777	
3887	0	32752	
3888	0	32752	
3889	0	32772	
3890	0	32752	
3891	0	32680	
3892	0	32648	
3893	0	32632	
3894	0	32776	
3895	0	32840	
3896	0	32756	
3897	0	32756	
3898	0	32752	
3899	0	32856	
3900	0	32856	
3901	0	32895	
3902	0	32840	
3903	0	32861	
3904	0	32888	
3905	0	32844	
3906	0	32768	
3907	0	32760	
3908	0	32784	
3909	0	32720	
3910	0	32688	
3911	0	32684	
3912	0	32661	
3913	0	32645	
3914	0	32680	
3915	0	32736	
3916	0	32836	
3917	0	32813	
3918	0	32824	
3919	0	32736	
3920	0	32816	
3921	0	32813	
3922	0	32885	
3923	0	32968	
3924	0	32864	
3925	0	32744	
3926	0	32817	
3927	0	32796	
3928	0	32732	
3929	0	32698	
3930	0	32684	
3931	0	32704	
3932	0	32696	
3933	0	32706	
3934	0	32700	
3935	0	32753	
3936	0	32772	
3937	0	32808	
3938	0	32808	
3939	0	32772	
3940	0	32752	
3941	0	32868	
3942	0	32848	
3943	0	32878	
3944	0	32837	
3945	0	32876	
3946	0	32908	
3947	0	32820	
3948	0	32657	
3949	0	32700	
3950	0	32661	
3951	0	32704	
3952	0	32693	
3953	0	32756	
3954	0	32768	
3955	0	32720	
3956	0	32724	
3957	0	32800	
3958	0	32768	
3959	0	32808	
3960	0	32796	
3961	0	32845	
3962	0	32856	
3963	0	32804	
3964	0	32868	
3965	0	32820	
3966	0	32832	
3967	0	32696	
3968	0	32776	
3969	0	32829	
3970	0	32812	
3971	0	32644	
3972	0	32668	
3973	0	32672	
3974	0	32632	
3975	0	32676	
3976	0	32824	
3977	0	32864	
3978	0	32993	
3979	0	32902	
3980	0	32901	
3981	0	32840	
3982	0	32840	
3983	0	32880	
3984	0	32772	
3985	0	32740	
3986	0	32752	
3987	0	32752	
3988	0	32790	
3989	0	32748	
3990	0	32676	
3991	0	32624	
3992	0	32688	
3993	0	32736	
3994	0	32824	
3995	0	32871	
3996	0	32824	
3997	0	32844	
3998	0	32814	
3999	0	32804	
4000	0	32748	
4001	0	32804	
4002	0	32916	
4003	0	32828	
4004	0	32748	
4005	0	32788	
4006	0	32784	
4007	0	32738	
4008	0	32728	
4009	0	32736	
4010	0	32736	
4011	0	32736	
4012	0	32708	
4013	0	32736	
4014	0	32736	
4015	0	32780	
4016	0	32804	
4017	0	32788	
4018	0	32768	
4019	0	32809	
4020	0	32838	
4021	0	32905	
4022	0	32772	
4023	0	32824	
4024	0	32868	
4025	0	32741	
4026	0	32791	
4027	0	32788	
4028	0	32828	
4029	0	32745	
4030	0	32704	
4031	0	32736	
4032	0	32688	
4033	0	32765	
4034	0	32724	
4035	0	32789	
4036	0	32786	
4037	0	32800	
4038	0	32764	
4039	0	32812	
4040	0	32772	
4041	0	32830	
4042	0	32868	
4043	0	32796	
4044	0	32822	
4045	0	32816	
4046	0	32756	
4047	0	32784	
4048	0	32772	
4049	0	32733	
4050	0	32656	
4051	0	32752	
4052	0	32712	
4053	0	32732	
4054	0	32801	
4055	0	32804	
4056	0	32752	
4057	0	32796	
4058	0	32788	
4059	0	32764	
4060	0	32788	
4061	0	32812	
4062	0	32928	
4063	0	32956	
4064	0	32854	
4065	0	32752	
4066	0	32785	
4067	0	32708	
4068	0	32713	
4069	0	32880	
4070	0	32832	
4071	0	32676	
4072	0	32740	
4073	0	32637	
4074	0	32744	
4075	0	32832	
4076	0	32820	
4077	0	32772	
4078	0	32737	
4079	0	32792	
4080	0	32864	
4081	0	32840	
4082	0	32820	
4083	0	32872	
4084	0	32756	
4085	0	32813	
4086	0	32740	
4087	0	32796	
4088	0	32652	
4089	0	32700	
4090	0	32832	
4091	0	32764	
4092	0	32816	
4093	0	32712	
4094	0	32638	
4095	0	32704	
4096	0	32900	
4097	0	32916	
4098	0	32768	
4099	0	32820	
4100	0	32824	
4101	0	32797	
4102	0	32804	
4103	0	32892	
4104	0	32864	
4105	0	32772	
4106	0	32696	
4107	0	32712	
4108	0	32748	
4109	0	32680	
4110	0	32732	
4111	0	32736	
4112	0	32732	
4113	0	32760	
4114	0	32684	
4115	0	32716	
4116	0	32736	
4117	0	32840	
4118	0	32848	
4119	0	32828	
4120	0	32796	
4121	0	32796	
4122	0	32884	
4123	0	32868	
4124	0	32844	
4125	0	32808	
4126	0	32804	
4127	0	32772	
4128	0	32848	
4129	0	32784	
4130	0	32712	
4131	0	32752	
4132	0	32652	
4133	0	32717	
4134	0	32718	
4135	0	32752	
4136	0	32756	
4137	0	32800	
4138	0	32800	
4139	0	32868	
4140	0	32808	
4141	0	32900	
4142	0	32856	
4143	0	32778	
4144	0	32860	
4145	0	32917	
4146	0	32792	
4147	0	32766	
4148	0	32742	
4149	0	32762	
4150	0	32740	
4151	0	32744	
4152	0	32700	
4153	0	32708	
4154	0	32800	
4155	0	32812	
4156	0	32696	
4157	0	32753	
4158	0	32782	
4159	0	32784	
4160	0	32856	
4161	0	32822	
4162	0	32812	
4163	0	32816	
4164	0	32844	
4165	0	32750	
4166	0	32752	
4167	0	32908	
4168	0	32824	
4169	0	32820	
4170	0	32732	
4171	0	32716	
4172	0	32752	
4173	0	32725	
4174	0	32644	
4175	0	32660	
4176	0	32768	
4177	0	32740	
4178	0	32828	
4179	0	32836	
4180	0	32832	
4181	0	32884	
4182	0	32824	
4183	0	32800	
4184	0	32792	
4185	0	32836	
4186	0	32796	
4187	0	32661	
4188	0	32832	
4189	0	32780	
4190	0	32710	
4191	0	32772	
4192	0	32804	
4193	0	32764	
4194	0	32788	
4195	0	32716	
4196	0	32720	
4197	0	32825	
4198	0	32926	
4199	0	32672	
4200	0	32740	
4201	0	32776	
4202	0	32812	
4203	0	32840	
4204	0	32944	
4205	0	32862	
4206	0	32828	
4207	0	32732	
4208	0	32724	
4209	0	32676	
4210	0	32812	
4211	0	32840	
4212	0	32780	
4213	0	32765	
4214	0	32686	
4215	0	32676	
4216	0	32724	
4217	0	32751	
4218	0	32812	
4219	0	32796	
4220	0	32848	
4221	0	32796	
4222	0	32856	
4223	0	32808	
4224	0	32848	
4225	0	32837	
4226	0	32776	
4227	0	32768	
4228	0	32792	
4229	0	32740	
4230	0	32789	
4231	0	32692	
4232	0	32712	
4233	0	32692	
4234	0	32776	
4235	0	32724	
4236	0	32780	
4237	0	32752	
4238	0	32812	
4239	0	32856	
4240	0	32801	
4241	0	32864	
4242	0	32812	
4243	0	32796	
4244	0	32840	
4245	0	32912	
4246	0	32824	
4247	0	32720	
4248	0	32736	
4249	0	32760	
4250	0	32716	
4251	0	32668	
4252	0	32744	
4253	0	32724	
4254	0	32690	
4255	0	32677	
4256	0	32772	
4257	0	32805	
4258	0	32732	
4259	0	32832	
4260	0	32880	
4261	0	32876	
4262	0	32860	
4263	0	32860	
4264	0	32848	
4265	0	32832	
4266	0	32784	
4267	0	32764	
4268	0	32804	
4269	0	32772	
4270	0	32732	
4271	0	32740	
4272	0	32712	
4273	0	32672	
4274	0	32702	
4275	0	32684	
4276	0	32805	
4277	0	32941	
4278	0	32836	
4279	0	32820	
4280	0	32792	
4281	0	32788	
4282	0	32796	
4283	0	32916	
4284	0	32814	
4285	0	32736	
4286	0	32736	
4287	0	32756	
4288	0	32784	
4289	0	32784	
4290	0	32772	
4291	0	32700	
4292	0	32730	
4293	0	32637	
4294	0	32716	
4295	0	32708	
4296	0	32788	
4297	0	32778	
4298	0	32807	
4299	0	32972	
4300	0	32856	
4301	0	32812	
4302	0	32976	
4303	0	32904	
4304	0	32808	
4305	0	32748	
4306	0	32736	
4307	0	32775	
4308	0	32732	
4309	0	32792	
4310	0	32724	
4311	0	32732	
4312	0	32696	
4313	0	32628	
4314	0	32800	
4315	0	32792	
4316	0	32770	
4317	0	32840	
4318	0	32796	
4319	0	32824	
4320	0	32836	
4321	0	32856	
4322	0	32876	
4323	0	32900	
4324	0	32837	
4325	0	32840	
4326	0	32716	
4327	0	32628	
4328	0	32660	
4329	0	32709	
4330	0	32716	
4331	0	32860	
4332	0	33096	
4333	0	32772	
4334	0	32668	
4335	0	32716	
4336	0	32744	
4337	0	32744	
4338	0	32680	
4339	0	32740	
4340	0	32804	
4341	0	32816	
4342	0	32841	
4343	0	32889	
4344	0	32812	
4345	0	32788	
4346	0	32796	
4347	0	32706	
4348	0	32832	
4349	0	32788	
4350	0	32712	
4351	0	32688	
4352	0	32732	
4353	0	32721	
4354	0	32663	
4355	0	32764	
4356	0	32748	
4357	0	32766	
4358	0	32829	
4359	0	32780	
4360	0	32853	
4361	0	32808	
4362	0	32960	
4363	0	32864	
4364	0	32832	
4365	0	32804	
4366	0	32782	
4367	0	32780	
4368	0	32688	
4369	0	32732	
4370	0	32788	
4371	0	32724	
4372	0	32705	
4373	0	32740	
4374	0	32744	
4375	0	32788	
4376	0	32736	
4377	0	32740	
4378	0	32769	
4379	0	32837	
4380	0	32840	
4381	0	32888	
4382	0	32876	
4383	0	32801	
4384	0	32772	
4385	0	32852	
4386	0	32800	
4387	0	32777	
4388	0	32664	
4389	0	32728	
4390	0	32740	
4391	0	32764	
4392	0	32692	
4393	0	32688	
4394	0	32765	
4395	0	32784	
4396	0	32804	
4397	0	32768	
4398	0	32780	
4399	0	32760	
4400	0	32776	
4401	0	32857	
4402	0	32848	
4403	0	32855	
4404	0	32797	
4405	0	32748	
4406	0	32812	
4407	0	32760	
4408	0	32768	
4409	0	32782	
4410	0	32725	
4411	0	32793	
4412	0	32808	
4413	0	32732	
4414	0	32696	
4415	0	32772	
4416	0	32800	
4417	0	32764	
4418	0	32796	
4419	0	32744	
4420	0	32765	
4421	0	32900	
4422	0	32812	
4423	0	32836	
4424	0	32948	
4425	0	32776	
4426	0	32868	
4427	0	32772	
4428	0	32769	
4429	0	32620	
4430	0	32740	
4431	0	32676	
4432	0	32708	
4433	0	32716	
4434	0	32708	
4435	0	32645	
4436	0	32772	
4437	0	32790	
4438	0	32840	
4439	0	32784	
4440	0	32960	
4441	0	32965	
4442	0	32936	
4443	0	32900	
4444	0	32828	
4445	0	32800	
4446	0	32760	
4447	0	32676	
4448	0	32676	
4449	0	32716	
4450	0	32805	
4451	0	32748	
4452	0	32656	
4453	0	32668	
4454	0	32744	
4455	0	32724	
4456	0	32764	
4457	0	32813	
4458	0	32784	
4459	0	32804	
4460	0	32864	
4461	0	32804	
4462	0	32960	
4463	0	32864	
4464	0	32852	
4465	0	32788	
4466	0	32790	
4467	0	32848	
4468	0	32765	
4469	0	32760	
4470	0	32772	
4471	0	32704	
4472	0	32684	
4473	0	32676	
4474	0	32732	
4475	0	32720	
4476	0	32776	
4477	0	32792	
4478	0	32828	
4479	0	32844	
4480	0	32804	
4481	0	32844	
4482	0	32824	
4483	0	32834	
4484	0	32908	
4485	0	32824	
4486	0	32760	
4487	0	32804	
4488	0	32752	
4489	0	32729	
4490	0	32748	
4491	0	32740	
4492	0	32764	
4493	0	32692	
4494	0	32692	
4495	0	32700	
4496	0	32768	
4497	0	32868	
4498	0	32768	
4499	0	32736	
4500	0	32880	
4501	0	32805	
4502	0	32880	
4503	0	32868	
4504	0	32788	
4505	0	32796	
4506	0	32904	
4507	0	32705	
4508	0	32784	
4509	0	32740	
4510	0	32696	
4511	0	32689	
4512	0	32724	
4513	0	32688	
4514	0	32752	
4515	0	32756	
4516	0	32816	
4517	0	32804	
4518	0	32732	
4519	0	32824	
4520	0	32876	
4521	0	32820	
4522	0	32808	
4523	0	32852	
4524	0	32820	
4525	0	32792	
4526	0	32772	
4527	0	32818	
4528	0	32752	
4529	0	32684	
4530	0	32768	
4531	0	32668	
4532	0	32692	
4533	0	32672	
4534	0	32780	
4535	0	32852	
4536	0	32804	
4537	0	32812	
4538	0	32788	
4539	0	32836	
4540	0	32788	
4541	0	32828	
4542	0	32824	
4543	0	32792	
4544	0	32784	
4545	0	32871	
4546	0	32888	
4547	0	32820	
4548	0	32780	
4549	0	32760	
4550	0	32676	
4551	0	32636	
4552	0	32732	
4553	0	32820	
4554	0	32632	
4555	0	32692	
4556	0	32776	
4557	0	32892	
4558	0	32848	
4559	0	32756	
4560	0	32672	
4561	0	32833	
4562	0	32912	
4563	0	32916	
4564	0	32817	
4565	0	32840	
4566	0	32688	
4567	0	32750	
4568	0	32776	
4569	0	32772	
4570	0	32808	
4571	0	32752	
4572	0	32700	
4573	0	32652	
4574	0	32846	
4575	0	32760	
4576	0	32742	
4577	0	32808	
4578	0	32744	
4579	0	32775	
4580	0	32869	
4581	0	32852	
4582	0	32864	
4583	0	32792	
4584	0	32784	
4585	0	32800	
4586	0	32766	
4587	0	32717	
4588	0	32768	
4589	0	32712	
4590	0	32788	
4591	0	32832	
4592	0	32748	
4593	0	32716	
4594	0	32672	
4595	0	32712	
4596	0	32724	
4597	0	32798	
4598	0	32748	
4599	0	32804	
4600	0	32873	
4601	0	32846	
4602	0	32896	
4603	0	32848	
4604	0	32840	
4605	0	32840	
4606	0	32760	
4607	0	32756	
4608	0	32760	
4609	0	32776	
4610	0	32680	
4611	0	32743	
4612	0	32756	
4613	0	32728	
4614	0	32760	
4615	0	32764	
4616	0	32764	
4617	0	32812	
4618	0	32772	
4619	0	32796	
4620	0	32804	
4621	0	32812	
4622	0	32856	
4623	0	32840	
4624	0	32964	
4625	0	32864	
4626	0	32654	
4627	0	32704	
4628	0	32708	
4629	0	32648	
4630	0	32732	
4631	0	32775	
4632	0	32756	
4633	0	32892	
4634	0	32792	
4635	0	32756	
4636	0	32848	
4637	0	32864	
4638	0	32721	
4639	0	32692	
4640	0	32784	
4641	0	32832	
4642	0	32884	
4643	0	32844	
4644	0	32794	
4645	0	32824	
4646	0	32800	
4647	0	32792	
4648	0	32712	
4649	0	32740	
4650	0	32664	
4651	0	32725	
4652	0	32756	
4653	0	32816	
4654	0	32804	
4655	0	32761	
4656	0	32696	
4657	0	32717	
4658	0	32760	
4659	0	32668	
4660	0	32948	
4661	0	32904	
4662	0	32884	
4663	0	32892	
4664	0	32838	
4665	0	32725	
4666	0	32744	
4667	0	32716	
4668	0	32808	
4669	0	32756	
4670	0	32708	
4671	0	32621	
4672	0	32696	
4673	0	32760	
4674	0	32796	
4675	0	32786	
4676	0	32796	
4677	0	32756	
4678	0	32766	
4679	0	32732	
4680	0	32788	
4681	0	32800	
4682	0	32864	
4683	0	32837	
4684	0	32800	
4685	0	32879	
4686	0	32800	
4687	0	32824	
4688	0	32748	
4689	0	32824	
4690	0	32712	
4691	0	32708	
4692	0	32756	
4693	0	32728	
4694	0	32684	
4695	0	32696	
4696	0	32736	
4697	0	32818	
4698	0	32828	
4699	0	32784	
4700	0	32828	
4701	0	32836	
4702	0	32848	
4703	0	32868	
4704	0	32832	
4705	0	32792	
4706	0	32824	
4707	0	32764	
4708	0	32720	
4709	0	32792	
4710	0	32728	
4711	0	32744	
4712	0	32680	
4713	0	32700	
4714	0	32681	
4715	0	32744	
4716	0	32717	
4717	0	32828	
4718	0	32852	
4719	0	32796	
4720	0	32876	
4721	0	32869	
4722	0	32868	
4723	0	32800	
4724	0	32812	
4725	0	32780	
4726	0	32748	
4727	0	32751	
4728	0	32822	
4729	0	32668	
4730	0	32788	
4731	0	32758	
4732	0	32700	
4733	0	32789	
4734	0	32721	
4735	0	32750	
4736	0	32780	
4737	0	32728	
4738	0	32712	
4739	0	32775	
4740	0	32808	
4741	0	32980	
4742	0	32996	
4743	0	32832	
4744	0	32833	
4745	0	32808	
4746	0	32788	
4747	0	32669	
4748	0	32784	
4749	0	32752	
4750	0	32712	
4751	0	32788	
4752	0	32772	
4753	0	32684	
4754	0	32597	
4755	0	32708	
4756	0	32828	
4757	0	32808	
4758	0	32792	
4759	0	32780	
4760	0	32788	
4761	0	32800	
4762	0	32836	
4763	0	32868	
4764	0	32892	
4765	0	32844	
4766	0	32732	
4767	0	32717	
4768	0	32772	
4769	0	32756	
4770	0	32788	
4771	0	32808	
4772	0	32672	
4773	0	32736	
4774	0	32736	
4775	0	32734	
4776	0	32796	
4777	0	32716	
4778	0	32748	
4779	0	32711	
4780	0	32813	
4781	0	32904	
4782	0	32860	
4783	0	32912	
4784	0	32792	
4785	0	32812	
4786	0	32881	
4787	0	32632	
4788	0	32680	
4789	0	32760	
4790	0	32704	
4791	0	32808	
4792	0	32796	
4793	0	32952	
4794	0	32732	
4795	0	32726	
4796	0	32704	
4797	0	32698	
4798	0	32797	
4799	0	32752	
4800	0	32812	
4801	0	32832	
4802	0	32796	
4803	0	32916	
4804	0	32840	
4805	0	32784	
4806	0	32792	
4807	0	32758	
4808	0	32788	
4809	0	32756	
4810	0	32688	
4811	0	32800	
4812	0	32678	
4813	0	32652	
4814	0	32754	
4815	0	32824	
4816	0	32772	
4817	0	32736	
4818	0	32752	
4819	0	32768	
4820	0	32750	
4821	0	32848	
4822	0	32841	
4823	0	32889	
4824	0	32772	
4825	0	32968	
4826	0	32840	
4827	0	32702	
4828	0	32684	
4829	0	32736	
4830	0	32740	
4831	0	32840	
4832	0	32760	
4833	0	32676	
4834	0	32684	
4835	0	32768	
4836	0	32676	
4837	0	32696	
4838	0	32756	
4839	0	32770	
4840	0	32856	
4841	0	32886	
4842	0	32900	
4843	0	32860	
4844	0	32864	
4845	0	32816	
4846	0	32804	
4847	0	32756	
4848	0	32732	
4849	0	32700	
4850	0	32704	
4851	0	32744	
4852	0	32734	
4853	0	32734	
4854	0	32760	
4855	0	32760	
4856	0	32752	
4857	0	32748	
4858	0	32768	
4859	0	32824	
4860	0	32828	
4861	0	32840	
4862	0	32836	
4863	0	32864	
4864	0	32832	
4865	0	32828	
4866	0	32772	
4867	0	32756	
4868	0	32804	
4869	0	32792	
4870	0	32768	
4871	0	32696	
4872	0	32708	
4873	0	32704	
4874	0	32676	
4875	0	32725	
4876	0	32740	
4877	0	32752	
4878	0	32724	
4879	0	32832	
4880	0	32960	
4881	0	32872	
4882	0	32764	
4883	0	32812	
4884	0	32852	
4885	0	32856	
4886	0	32780	
4887	0	32745	
4888	0	32828	
4889	0	32720	
4890	0	32724	
4891	0	32756	
4892	0	32740	
4893	0	32660	
4894	0	32704	
4895	0	32728	
4896	0	32769	
4897	0	32772	
4898	0	32764	
4899	0	32800	
4900	0	32792	
4901	0	32804	
4902	0	32884	
4903	0	32816	
4904	0	32848	
4905	0	32782	
4906	0	32804	
4907	0	32854	
4908	0	32752	
4909	0	32656	
4910	0	32660	
4911	0	32652	
4912	0	32940	
4913	0	33000	
4914	0	32740	
4915	0	32677	
4916	0	32792	
4917	0	32772	
4918	0	32752	
4919	0	32792	
4920	0	32781	
4921	0	32880	
4922	0	32906	
4923	0	32842	
4924	0	32836	
4925	0	32804	
4926	0	32824	
4927	0	32748	
4928	0	32808	
4929	0	32740	
4930	0	32712	
4931	0	32724	
4932	0	32704	
4933	0	32644	
4934	0	32740	
4935	0	32756	
4936	0	32776	
4937	0	32716	
4938	0	32712	
4939	0	32776	
4940	0	32852	
4941	0	32888	
4942	0	32844	
4943	0	32878	
4944	0	32864	
4945	0	32696	
4946	0	32716	
4947	0	32836	
4948	0	32688	
4949	0	32748	
4950	0	32832	
4951	0	32736	
4952	0	32832	
4953	0	32744	
4954	0	32712	
4955	0	32724	
4956	0	32772	
4957	0	32732	
4958	0	32768	
4959	0	32845	
4960	0	32816	
4961	0	32856	
4962	0	32816	
4963	0	32720	
4964	0	32766	
4965	0	32760	
4966	0	32808	
4967	0	32916	
4968	0	32985	
4969	0	32824	
4970	0	32676	
4971	0	32652	
4972	0	32716	
4973	0	32696	
4974	0	32736	
4975	0	32692	
4976	0	32740	
4977	0	32716	
4978	0	32716	
4979	0	32840	
4980	0	32900	
4981	0	32992	
4982	0	32892	
4983	0	32864	
4984	0	32780	
4985	0	32796	
4986	0	32804	
4987	0	32716	
4988	0	32812	
4989	0	32724	
4990	0	32736	
4991	0	32712	
4992	0	32640	
4993	0	32685	
4994	0	32724	
4995	0	32716	
4996	0	32816	
4997	0	32793	
4998	0	32809	
4999	0	32830	
5000	0	32816	
5001	0	32856	
5002	0	32820	
5003	0	32816	
5004	0	32840	
5005	0	32836	
5006	0	32804	
5007	0	32820	
5008	0	32729	
5009	0	32712	
5010	0	32780	
5011	0	32720	
5012	0	32708	
5013	0	32764	
5014	0	32728	
5015	0	32756	
5016	0	32748	
5017	0	32748	
5018	0	32716	
5019	0	32862	
5020	0	32881	
5021	0	32892	
5022	0	32844	
5023	0	32774	
5024	0	32768	
5025	0	32696	
5026	0	33056	
5027	0	32868	
5028	0	32744	
5029	0	32676	
5030	0	32757	
5031	0	32716	
5032	0	32744	
5033	0	32708	
5034	0	32728	
5035	0	32812	
5036	0	32741	
5037	0	32752	
5038	0	32741	
5039	0	32798	
5040	0	32888	
5041	0	32864	
5042	0	32772	
5043	0	32880	
5044	0	32800	
5045	0	32785	
5046	0	32788	
5047	0	32728	
5048	0	32716	
5049	0	32696	
5050	0	32813	
5051	0	32728	
5052	0	32685	
5053	0	32720	
5054	0	32708	
5055	0	32740	
5056	0	32806	
5057	0	32776	
5058	0	32764	
5059	0	32796	
5060	0	32760	
5061	0	32916	
5062	0	33000	
5063	0	32840	
5064	0	32836	
5065	0	32760	
5066	0	32712	
5067	0	32680	
5068	0	32660	
5069	0	32908	
5070	0	32860	
5071	0	32796	
5072	0	32672	
5073	0	32668	
5074	0	32708	
5075	0	32708	
5076	0	32740	
5077	0	32808	
5078	0	32876	
5079	0	32824	
5080	0	32770	
5081	0	32780	
5082	0	32808	
5083	0	32864	
5084	0	32858	
5085	0	32856	
5086	0	32768	
5087	0	32720	
5088	0	32848	
5089	0	32728	
5090	0	32712	
5091	0	32660	
5092	0	32668	
5093	0	32760	
5094	0	32676	
5095	0	32800	
5096	0	32873	
5097	0	32724	
5098	0	32708	
5099	0	32832	
5100	0	32869	
5101	0	32868	
5102	0	32820	
5103	0	32794	
5104	0	32880	
5105	0	32806	
5106	0	32768	
5107	0	32752	
5108	0	32816	
5109	0	32708	
5110	0	32774	
5111	0	32722	
5112	0	32676	
5113	0	32720	
5114	0	32714	
5115	0	32708	
5116	0	32728	
5117	0	32784	
5118	0	32832	
5119	0	32832	
5120	0	32820	
5121	0	32800	
5122	0	32836	
5123	0	32792	
5124	0	32748	
5125	0	32712	
5126	0	32864	
5127	0	32909	
5128	0	32764	
5129	0	32724	
5130	0	32736	
5131	0	32740	
5132	0	32724	
5133	0	32732	
5134	0	32734	
5135	0	32756	
5136	0	32784	
5137	0	32804	
5138	0	32812	
5139	0	32800	
5140	0	32800	
5141	0	32928	
5142	0	32848	
5143	0	32768	
5144	0	32804	
5145	0	32784	
5146	0	32780	
5147	0	32868	
5148	0	32844	
5149	0	32756	
5150	0	32660	
5151	0	32694	
5152	0	32685	
5153	0	32660	
5154	0	32692	
5155	0	32756	
5156	0	32677	
5157	0	32776	
5158	0	32796	
5159	0	32833	
5160	0	32872	
5161	0	32820	
5162	0	32784	
5163	0	32868	
5164	0	32910	
5165	0	32949	
5166	0	32940	
5167	0	32716	
5168	0	32676	
5169	0	32724	
5170	0	32764	
5171	0	32712	
5172	0	32668	
5173	0	32716	
5174	0	32708	
5175	0	32736	
5176	0	32800	
5177	0	32798	
5178	0	32760	
5179	0	32784	
5180	0	32812	
5181	0	32844	
5182	0	32808	
5183	0	32789	
5184	0	32925	
5185	0	32837	
5186	0	32784	
5187	0	32844	
5188	0	32720	
5189	0	32793	
5190	0	32728	
5191	0	32728	
5192	0	32772	
5193	0	32775	
5194	0	32732	
5195	0	32665	
5196	0	32726	
5197	0	32778	
5198	0	32724	
5199	0	32792	
5200	0	32824	
5201	0	32812	
5202	0	32848	
5203	0	32869	
5204	0	32868	
5205	0	32832	
5206	0	32752	
5207	0	32764	
5208	0	32632	
5209	0	32704	
5210	0	32720	
5211	0	32728	
5212	0	32804	
5213	0	32756	
5214	0	32892	
5215	0	32844	
5216	0	32718	
5217	0	32792	
5218	0	32772	
5219	0	32830	
5220	0	32784	
5221	0	32840	
5222	0	32752	
5223	0	32780	
5224	0	32869	
5225	0	33016	
5226	0	32848	
5227	0	32640	
5228	0	32596	
5229	0	32632	
5230	0	32572	
5231	0	32696	
5232	0	32792	
5233	0	32880	
5234	0	32637	
5235	0	32644	
5236	0	32661	
5237	0	32757	
5238	0	32864	
5239	0	32716	
5240	0	32732	
5241	0	32894	
5242	0	33020	
5243	0	33069	
5244	0	33392	
5245	0	33192	
5246	0	32720	
5247	0	32356	
5248	0	32762	
5249	0	32616	
5250	0	32696	
5251	0	32896	
5252	0	32296	
5253	0	32580	
5254	0	32593	
5255	0	33300	
5256	0	32988	
5257	0	32416	
5258	0	32100	
5259	0	32820	
5260	0	32972	
5261	0	32628	
5262	0	32133	
5263	0	32864	
5264	0	33684	
5265	0	34092	
5266	0	34156	
5267	0	34888	
5268	0	34712	
5269	0	33584	
5270	0	32100	
5271	0	31112	
5272	0	30564	
5273	0	31424	
5274	0	32396	
5275	0	32584	
5276	0	32832	
5277	0	32960	
5278	0	32660	
5279	0	31524	
5280	0	31426	
5281	0	32548	
5282	0	33276	
5283	0	32576	
5284	0	31476	
5285	0	31688	
5286	0	31520	
5287	0	32408	
5288	0	33508	
5289	0	33384	
5290	0	33167	
5291	0	33364	
5292	0	33520	
5293	0	33532	
5294	0	33036	
5295	0	33476	
5296	0	33788	
5297	0	33864	
5298	0	33628	
5299	0	32700	
5300	0	32040	
5301	0	31760	
5302	0	32396	
5303	0	32740	
5304	0	34704	
5305	0	35318	
5306	0	33708	
5307	0	33160	
5308	0	32832	
5309	0	32436	
5310	0	32261	
5311	0	31692	
5312	0	33284	
5313	0	33736	
5314	0	32396	
5315	0	31356	
5316	0	30240	
5317	0	29724	
5318	0	29140	
5319	0	29324	
5320	0	30444	
5321	0	30516	
5322	0	29148	
5323	0	29596	
5324	0	31168	
5325	0	31900	
5326	0	31156	
5327	0	31768	
5328	0	34484	
5329	0	34614	
5330	0	34596	
5331	0	35656	
5332	0	36964	
5333	0	38096	
5334	0	38392	
5335	0	40192	
5336	0	39876	
5337	0	38094	
5338	0	35222	
5339	0	32540	
5340	0	32749	
5341	0	32064	
5342	0	31344	
5343	0	32852	
5344	0	32764	
5345	0	30152	
5346	0	26237	
5347	0	26008	
5348	0	26230	
5349	0	26080	
5350	0	27856	
5351	0	30295	
5352	0	32660	
5353	0	34072	
5354	0	35300	
5355	0	37332	
5356	0	37088	
5357	0	36508	
5358	0	36540	
5359	0	36000	
5360	0	36160	
5361	0	36312	
5362	0	36632	
5363	0	34140	
5364	0	30780	
5365	0	30636	
5366	0	31262	
5367	0	30932	
5368	0	31020	
5369	0	32772	
5370	0	33084	
5371	0	32168	
5372	0	32868	
5373	0	32940	
5374	0	32676	
5375	0	31808	
5376	0	31920	
5377	0	32024	
5378	0	31424	
5379	0	30740	
5380	0	31092	
5381	0	33940	
5382	0	33900	
5383	0	30384	
5384	0	27460	
5385	0	26564	
5386	0	29044	
5387	0	33372	
5388	0	33216	
5389	0	31300	
5390	0	31800	
5391	0	32704	
5392	0	32540	
5393	0	32569	
5394	0	32504	
5395	0	32240	
5396	0	31528	
5397	0	32584	
5398	0	34404	
5399	0	34084	
5400	0	34976	
5401	0	36648	
5402	0	37785	
5403	0	38628	
5404	0	37404	
5405	0	35437	
5406	0	34060	
5407	0	33600	
5408	0	32576	
5409	0	31592	
5410	0	32048	
5411	0	33440	
5412	0	33505	
5413	0	33201	
5414	0	34934	
5415	0	36744	
5416	0	36444	
5417	0	33446	
5418	0	31032	
5419	0	28856	
5420	0	29748	
5421	0	30364	
5422	0	30180	
5423	0	30520	
5424	0	31420	
5425	0	31036	
5426	0	30840	
5427	0	31351	
5428	0	31320	
5429	0	31392	
5430	0	31444	
5431	0	32660	
5432	0	32468	
5433	0	30480	
5434	0	30372	
5435	0	32840	
5436	0	34848	
5437	0	35892	
5438	0	36616	
5439	0	37412	
5440	0	36144	
5441	0	34872	
5442	0	33508	
5443	0	32080	
5444	0	31096	
5445	0	31564	
5446	0	32158	
5447	0	31852	
5448	0	30848	
5449	0	29789	
5450	0	29088	
5451	0	29972	
5452	0	31268	
5453	0	32280	
5454	0	30700	
5455	0	32512	
5456	0	35088	
5457	0	34048	
5458	0	31828	
5459	0	32668	
5460	0	34553	
5461	0	35703	
5462	0	35684	
5463	0	36024	
5464	0	36700	
5465	0	36372	
5466	0	33772	
5467	0	34724	
5468	0	37108	
5469	0	33844	
5470	0	28108	
5471	0	26922	
5472	0	27504	
5473	0	30288	
5474	0	34024	
5475	0	36461	
5476	0	36484	
5477	0	35008	
5478	0	33004	
5479	0	31288	
5480	0	30444	
5481	0	31868	
5482	0	32520	
5483	0	31616	
5484	0	30757	
5485	0	30392	
5486	0	31109	
5487	0	32936	
5488	0	34076	
5489	0	33828	
5490	0	34324	
5491	0	33722	
5492	0	31728	
5493	0	30454	
5494	0	32468	
5495	0	33176	
5496	0	32476	
5497	0	32313	
5498	0	32476	
5499	0	33052	
5500	0	33372	
5501	0	32660	
5502	0	32688	
5503	0	32456	
5504	0	32789	
5505	0	32144	
5506	0	31600	
5507	0	31049	
5508	0	30128	
5509	0	31072	
5510	0	31732	
5511	0	33752	
5512	0	35880	
5513	0	36236	
5514	0	35324	
5515	0	34798	
5516	0	33760	
5517	0	34560	
5518	0	35212	
5519	0	34364	
5520	0	33754	
5521	0	33716	
5522	0	33100	
5523	0	31724	
5524	0	31480	
5525	0	30852	
5526	0	30784	
5527	0	31640	
5528	0	31908	
5529	0	33068	
5530	0	33700	
5531	0	34060	
5532	0	31764	
5533	0	27788	
5534	0	27828	
5535	0	31164	
5536	0	33068	
5537	0	35112	
5538	0	37472	
5539	0	36164	
5540	0	33804	
5541	0	32224	
5542	0	32680	
5543	0	33714	
5544	0	36200	
5545	0	34300	
5546	0	31200	
5547	0	29933	
5548	0	30888	
5549	0	31696	
5550	0	31072	
5551	0	30948	
5552	0	31756	
5553	0	33116	
5554	0	35572	
5555	0	34788	
5556	0	34719	
5557	0	33620	
5558	0	31376	
5559	0	31204	
5560	0	32840	
5561	0	32852	
5562	0	33374	
5563	0	33508	
5564	0	33072	
5565	0	30796	
5566	0	30756	
5567	0	31028	
5568	0	31364	
5569	0	31092	
5570	0	31116	
5571	0	32148	
5572	0	33494	
5573	0	34548	
5574	0	34776	
5575	0	35462	
5576	0	35806	
5577	0	35228	
5578	0	34060	
5579	0	33436	
5580	0	33652	
5581	0	33408	
5582	0	31192	
5583	0	30040	
5584	0	30852	
5585	0	32225	
5586	0	31896	
5587	0	30604	
5588	0	30960	
5589	0	31400	
5590	0	32974	
5591	0	33520	
5592	0	33541	
5593	0	33697	
5594	0	33053	
5595	0	33094	
5596	0	34976	
5597	0	35600	
5598	0	33815	
5599	0	30872	
5600	0	32052	
5601	0	32050	
5602	0	32202	
5603	0	33472	
5604	0	34653	
5605	0	33404	
5606	0	30328	
5607	0	30988	
5608	0	32468	
5609	0	33176	
5610	0	34380	
5611	0	34172	
5612	0	32573	
5613	0	32320	
5614	0	31704	
5615	0	30908	
5616	0	30612	
5617	0	30860	
5618	0	32400	
5619	0	33204	
5620	0	34028	
5621	0	34096	
5622	0	35588	
5623	0	35514	
5624	0	33966	
5625	0	32808	
5626	0	33164	
5627	0	32756	
5628	0	32384	
5629	0	32536	
5630	0	33800	
5631	0	34608	
5632	0	32628	
5633	0	31048	
5634	0	31816	
5635	0	32092	
5636	0	32444	
5637	0	33204	
5638	0	34777	
5639	0	34956	
5640	0	34096	
5641	0	33596	
5642	0	31810	
5643	0	30304	
5644	0	28996	
5645	0	29364	
5646	0	30468	
5647	0	31140	
5648	0	30964	
5649	0	28820	
5650	0	28614	
5651	0	28696	
5652	0	30056	
5653	0	33472	
5654	0	35392	
5655	0	35532	
5656	0	36220	
5657	0	37556	
5658	0	38584	
5659	0	38312	
5660	0	37756	
5661	0	36776	
5662	0	36200	
5663	0	34832	
5664	0	33124	
5665	0	33148	
5666	0	31984	
5667	0	29892	
5668	0	28376	
5669	0	27932	
5670	0	29029	
5671	0	30094	
5672	0	30160	
5673	0	30660	
5674	0	30864	
5675	0	31568	
5676	0	32564	
5677	0	33620	
5678	0	34401	
5679	0	33508	
5680	0	32744	
5681	0	32484	
5682	0	33500	
5683	0	34944	
5684	0	36493	
5685	0	37512	
5686	0	37404	
5687	0	32904	
5688	0	30292	
5689	0	31212	
5690	0	32640	
5691	0	34184	
5692	0	33974	
5693	0	34093	
5694	0	32284	
5695	0	31172	
5696	0	31300	
5697	0	31161	
5698	0	30982	
5699	0	32056	
5700	0	32100	
5701	0	31384	
5702	0	31116	
5703	0	31756	
5704	0	32228	
5705	0	32032	
5706	0	32133	
5707	0	33092	
5708	0	32900	
5709	0	31820	
5710	0	31868	
5711	0	32161	
5712	0	33697	
5713	0	34000	
5714	0	33580	
5715	0	35296	
5716	0	35768	
5717	0	33892	
5718	0	31688	
5719	0	31956	
5720	0	33524	
5721	0	33036	
5722	0	32652	
5723	0	32936	
5724	0	31700	
5725	0	30212	
5726	0	31060	
5727	0	32518	
5728	0	33085	
5729	0	35256	
5730	0	34652	
5731	0	31448	
5732	0	29300	
5733	0	30804	
5734	0	32972	
5735	0	33796	
5736	0	35359	
5737	0	34092	
5738	0	34113	
5739	0	34638	
5740	0	35272	
5741	0	34848	
5742	0	33660	
5743	0	32349	
5744	0	31900	
5745	0	31916	
5746	0	31652	
5747	0	32396	
5748	0	32900	
5749	0	31285	
5750	0	31420	
5751	0	32380	
5752	0	32460	
5753	0	31676	
5754	0	30752	
5755	0	31568	
5756	0	32056	
5757	0	31996	
5758	0	32144	
5759	0	32528	
5760	0	33964	
5761	0	34695	
5762	0	35045	
5763	0	35408	
5764	0	35204	
5765	0	36244	
5766	0	37038	
5767	0	35772	
5768	0	33238	
5769	0	32004	
5770	0	31192	
5771	0	30796	
5772	0	29776	
5773	0	28940	
5774	0	29580	
5775	0	29572	
5776	0	30190	
5777	0	30432	
5778	0	31272	
5779	0	31280	
5780	0	31296	
5781	0	33190	
5782	0	33728	
5783	0	34184	
5784	0	35396	
5785	0	35112	
5786	0	33561	
5787	0	32828	
5788	0	32572	
5789	0	31988	
5790	0	30845	
5791	0	29440	
5792	0	30132	
5793	0	31584	
5794	0	33028	
5795	0	35020	
5796	0	36792	
5797	0	36864	
5798	0	36152	
5799	0	36256	
5800	0	36508	
5801	0	35288	
5802	0	34876	
5803	0	34452	
5804	0	33028	
5805	0	31732	
5806	0	31340	
5807	0	30716	
5808	0	31004	
5809	0	32378	
5810	0	32016	
5811	0	30552	
5812	0	30984	
5813	0	33044	
5814	0	32601	
5815	0	32796	
5816	0	32864	
5817	0	33036	
5818	0	31964	
5819	0	30560	
5820	0	31380	
5821	0	35080	
5822	0	34695	
5823	0	31674	
5824	0	30420	
5825	0	31848	
5826	0	31876	
5827	0	31920	
5828	0	32396	
5829	0	32372	
5830	0	31944	
5831	0	31840	
5832	0	33116	
5833	0	33445	
5834	0	33000	
5835	0	32068	
5836	0	31738	
5837	0	33652	
5838	0	36104	
5839	0	33994	
5840	0	32968	
5841	0	32832	
5842	0	32046	
5843	0	31892	
5844	0	34668	
5845	0	35116	
5846	0	35140	
5847	0	35040	
5848	0	33680	
5849	0	32324	
5850	0	30202	
5851	0	29460	
5852	0	29693	
5853	0	29888	
5854	0	31372	
5855	0	32216	
5856	0	33096	
5857	0	33664	
5858	0	33937	
5859	0	33556	
5860	0	35048	
5861	0	35628	
5862	0	35136	
5863	0	34848	
5864	0	33920	
5865	0	33228	
5866	0	32325	
5867	0	31832	
5868	0	31384	
5869	0	30364	
5870	0	30912	
5871	0	31120	
5872	0	32004	
5873	0	32900	
5874	0	33388	
5875	0	33280	
5876	0	33005	
5877	0	31916	
5878	0	32476	
5879	0	33756	
5880	0	34173	
5881	0	33860	
5882	0	33012	
5883	0	31636	
5884	0	31168	
5885	0	31984	
5886	0	31720	
5887	0	33112	
5888	0	36440	
5889	0	37024	
5890	0	33940	
5891	0	31932	
5892	0	31764	
5893	0	32096	
5894	0	32256	
5895	0	31688	
5896	0	31768	
5897	0	32096	
5898	0	31602	
5899	0	31856	
5900	0	33166	
5901	0	32864	
5902	0	30662	
5903	0	31516	
5904	0	32084	
5905	0	32508	
5906	0	33108	
5907	0	33600	
5908	0	32772	
5909	0	33236	
5910	0	33196	
5911	0	33836	
5912	0	33196	
5913	0	32440	
5914	0	32705	
5915	0	33352	
5916	0	32808	
5917	0	32657	
5918	0	33268	
5919	0	34064	
5920	0	33462	
5921	0	33468	
5922	0	33908	
5923	0	33508	
5924	0	33292	
5925	0	33449	
5926	0	33740	
5927	0	33640	
5928	0	33176	
5929	0	31292	
5930	0	30932	
5931	0	30456	
5932	0	29692	
5933	0	30028	
5934	0	32124	
5935	0	33700	
5936	0	33772	
5937	0	33808	
5938	0	34644	
5939	0	34608	
5940	0	34744	
5941	0	34004	
5942	0	33188	
5943	0	32768	
5944	0	32033	
5945	0	32008	
5946	0	32312	
5947	0	32208	
5948	0	31212	
5949	0	30996	
5950	0	31940	
5951	0	31460	
5952	0	30424	
5953	0	31380	
5954	0	33012	
5955	0	33128	
5956	0	33376	
5957	0	34084	
5958	0	34338	
5959	0	34532	
5960	0	34776	
5961	0	34412	
5962	0	33700	
5963	0	34356	
5964	0	34127	
5965	0	32288	
5966	0	31940	
5967	0	33500	
5968	0	34748	
5969	0	32016	
5970	0	31008	
5971	0	30680	
5972	0	32288	
5973	0	33340	
5974	0	31948	
5975	0	31744	
5976	0	30984	
5977	0	30252	
5978	0	31900	
5979	0	33048	
5980	0	32488	
5981	0	32364	
5982	0	31604	
5983	0	31288	
5984	0	31300	
5985	0	32000	
5986	0	32232	
5987	0	32696	
5988	0	33486	
5989	0	34228	
5990	0	35364	
5991	0	35566	
5992	0	35786	
5993	0	36164	
5994	0	35324	
5995	0	34512	
5996	0	33888	
5997	0	32306	
5998	0	32468	
5999	0	33220	
6000	0	33668	
6001	0	33724	
6002	0	33052	
6003	0	32484	
6004	0	32524	
6005	0	31512	
6006	0	30806	
6007	0	30882	
6008	0	30220	
6009	0	29372	
6010	0	29744	
6011	0	30092	
6012	0	31596	
6013	0	33164	
6014	0	33180	
6015	0	32508	
6016	0	32488	
6017	0	33588	
6018	0	34000	
6019	0	34144	
6020	0	34996	
6021	0	35364	
6022	0	34252	
6023	0	33704	
6024	0	33696	
6025	0	33404	
6026	0	32324	
6027	0	32488	
6028	0	32953	
6029	0	32192	
6030	0	31108	
6031	0	31576	
6032	0	31246	
6033	0	31576	
6034	0	32396	
6035	0	32000	
6036	0	33456	
6037	0	33113	
6038	0	31760	
6039	0	31368	
6040	0	32846	
6041	0	34735	
6042	0	34240	
6043	0	32772	
6044	0	32336	
6045	0	32536	
6046	0	33004	
6047	0	32764	
6048	0	34796	
6049	0	35052	
6050	0	34068	
6051	0	33276	
6052	0	31748	
6053	0	32968	
6054	0	33217	
6055	0	32960	
6056	0	32492	
6057	0	31764	
6058	0	30884	
6059	0	31504	
6060	0	32000	
6061	0	32868	
6062	0	32462	
6063	0	32308	
6064	0	32614	
6065	0	31732	
6066	0	32800	
6067	0	34980	
6068	0	33776	
6069	0	32174	
6070	0	32184	
6071	0	32104	
6072	0	32336	
6073	0	32512	
6074	0	32576	
6075	0	33352	
6076	0	34520	
6077	0	33678	
6078	0	32492	
6079	0	32988	
6080	0	34092	
6081	0	33092	
6082	0	32756	
6083	0	33504	
6084	0	33484	
6085	0	32888	
6086	0	32528	
6087	0	33436	
6088	0	33732	
6089	0	32956	
6090	0	32164	
6091	0	31200	
6092	0	30260	
6093	0	30512	
6094	0	30628	
6095	0	30504	
6096	0	30639	
6097	0	32333	
6098	0	33260	
6099	0	33661	
6100	0	34504	
6101	0	34800	
6102	0	35104	
6103	0	35292	
6104	0	35952	
6105	0	35340	
6106	0	33501	
6107	0	34100	
6108	0	34496	
6109	0	32096	
6110	0	31878	
6111	0	30656	
6112	0	30316	
6113	0	30365	
6114	0	29872	
6115	0	30328	
6116	0	31544	
6117	0	32356	
6118	0	31988	
6119	0	32632	
6120	0	35186	
6121	0	34776	
6122	0	33308	
6123	0	32596	
6124	0	33452	
6125	0	33524	
6126	0	33924	
6127	0	33856	
6128	0	33068	
6129	0	32649	
6130	0	33044	
6131	0	31464	
6132	0	31484	
6133	0	33036	
6134	0	33237	
6135	0	33328	
6136	0	32840	
6137	0	32400	
6138	0	32476	
6139	0	31528	
6140	0	31608	
6141	0	32268	
6142	0	33304	
6143	0	33437	
6144	0	32880	
6145	0	32254	
6146	0	31676	
6147	0	32158	
6148	0	32360	
6149	0	31980	
6150	0	32249	
6151	0	32664	
6152	0	33382	
6153	0	34064	
6154	0	34660	
6155	0	35720	
6156	0	35972	
6157	0	35350	
6158	0	34496	
6159	0	33401	
6160	0	32630	
6161	0	32116	
6162	0	31400	
6163	0	30208	
6164	0	30253	
6165	0	30796	
6166	0	31564	
6167	0	31168	
6168	0	30772	
6169	0	31408	
6170	0	32620	
6171	0	34041	
6172	0	34708	
6173	0	34644	
6174	0	34440	
6175	0	34568	
6176	0	33416	
6177	0	32492	
6178	0	33348	
6179	0	34264	
6180	0	33009	
6181	0	31828	
6182	0	30686	
6183	0	29312	
6184	0	29204	
6185	0	31036	
6186	0	32892	
6187	0	32940	
6188	0	33648	
6189	0	34332	
6190	0	33412	
6191	0	32628	
6192	0	32776	
6193	0	32824	
6194	0	33064	
6195	0	32384	
6196	0	32952	
6197	0	34292	
6198	0	33100	
6199	0	32548	
6200	0	33128	
6201	0	33777	
6202	0	33862	
6203	0	34052	
6204	0	34976	
6205	0	34840	
6206	0	31088	
6207	0	29512	
6208	0	30648	
6209	0	31712	
6210	0	32608	
6211	0	33912	
6212	0	34604	
6213	0	34630	
6214	0	33572	
6215	0	31965	
6216	0	31232	
6217	0	31520	
6218	0	31649	
6219	0	31460	
6220	0	31636	
6221	0	32704	
6222	0	34660	
6223	0	36636	
6224	0	37128	
6225	0	35852	
6226	0	35296	
6227	0	35044	
6228	0	33576	
6229	0	32252	
6230	0	31584	
6231	0	29964	
6232	0	28336	
6233	0	27968	
6234	0	28440	
6235	0	29004	
6236	0	29124	
6237	0	29409	
6238	0	31060	
6239	0	32010	
6240	0	32952	
6241	0	34044	
6242	0	34912	
6243	0	36024	
6244	0	36294	
6245	0	36748	
6246	0	36800	
6247	0	35204	
6248	0	33925	
6249	0	33327	
6250	0	33084	
6251	0	32980	
6252	0	32392	
6253	0	32864	
6254	0	32780	
6255	0	32110	
6256	0	31012	
6257	0	30440	
6258	0	31064	
6259	0	31556	
6260	0	32320	
6261	0	33068	
6262	0	32972	
6263	0	32871	
6264	0	32788	
6265	0	32952	
6266	0	33556	
6267	0	32982	
6268	0	33548	
6269	0	33256	
6270	0	33752	
6271	0	33800	
6272	0	33776	
6273	0	32288	
6274	0	29728	
6275	0	28840	
6276	0	30020	
6277	0	33312	
6278	0	34760	
6279	0	34084	
6280	0	32348	
6281	0	32964	
6282	0	34232	
6283	0	34560	
6284	0	33320	
6285	0	32788	
6286	0	32316	
6287	0	32876	
6288	0	32842	
6289	0	32764	
6290	0	33176	
6291	0	32368	
6292	0	32180	
6293	0	32737	
6294	0	33144	
6295	0	32676	
6296	0	31740	
6297	0	31812	
6298	0	32600	
6299	0	32672	
6300	0	32752	
6301	0	32712	
6302	0	32812	
6303	0	33620	
6304	0	33828	
6305	0	33589	
6306	0	33992	
6307	0	34080	
6308	0	33412	
6309	0	33028	
6310	0	32480	
6311	0	32140	
6312	0	32536	
6313	0	32408	
6314	0	32132	
6315	0	31924	
6316	0	32132	
6317	0	32164	
6318	0	32092	
6319	0	32376	
6320	0	32712	
6321	0	32896	
6322	0	33016	
6323	0	33064	
6324	0	33196	
6325	0	33308	
6326	0	33212	
6327	0	33172	
6328	0	32832	
6329	0	32437	
6330	0	32324	
6331	0	32276	
6332	0	32341	
6333	0	32200	
6334	0	32248	
6335	0	32437	
6336	0	32716	
6337	0	32596	
6338	0	32756	
6339	0	32973	
6340	0	33233	
6341	0	33368	
6342	0	33313	
6343	0	33260	
6344	0	33468	
6345	0	33412	
6346	0	33245	
6347	0	33088	
6348	0	33104	
6349	0	32996	
6350	0	32837	
6351	0	32612	
6352	0	32372	
6353	0	32357	
6354	0	32632	
6355	0	32713	
6356	0	32536	
6357	0	32700	
6358	0	32552	
6359	0	32440	
6360	0	32452	
6361	0	32624	
6362	0	32948	
6363	0	32808	
6364	0	32804	
6365	0	33120	
6366	0	33241	
6367	0	32648	
6368	0	32544	
6369	0	32860	
6370	0	32992	
6371	0	32304	
6372	0	31756	
6373	0	32604	
6374	0	32997	
6375	0	33232	
6376	0	33360	
6377	0	32956	
6378	0	32612	
6379	0	32564	
6380	0	32576	
6381	0	32993	
6382	0	32933	
6383	0	32952	
6384	0	32996	
6385	0	33020	
6386	0	32764	
6387	0	32692	
6388	0	32677	
6389	0	32849	
6390	0	32716	
6391	0	32740	
6392	0	32721	
6393	0	32673	
6394	0	32756	
6395	0	32780	
6396	0	32792	
6397	0	32776	
6398	0	32788	
6399	0	32845	
6400	0	32837	
6401	0	32932	
6402	0	32864	
6403	0	32868	
6404	0	32872	
6405	0	32905	
6406	0	32828	
6407	0	32768	
6408	0	32708	
6409	0	32778	
6410	0	32816	
6411	0	32664	
6412	0	32765	
6413	0	32704	
6414	0	32584	
6415	0	32640	
6416	0	32788	
6417	0	32736	
6418	0	32788	
6419	0	32720	
6420	0	32733	
6421	0	32792	
6422	0	32824	
6423	0	32876	
6424	0	32808	
6425	0	32800	
6426	0	32756	
6427	0	32712	
6428	0	32845	
6429	0	32800	
6430	0	32752	
6431	0	32800	
6432	0	32780	
6433	0	32822	
6434	0	32832	
6435	0	32832	
6436	0	32840	
6437	0	32808	
6438	0	32796	
6439	0	32720	
6440	0	32688	
6441	0	32708	
6442	0	32728	
6443	0	32861	
6444	0	32842	
6445	0	32820	
6446	0	32888	
6447	0	32757	
6448	0	32748	
6449	0	32600	
6450	0	32688	
6451	0	32776	
6452	0	32664	
6453	0	32794	
6454	0	32840	
6455	0	32861	
6456	0	32820	
6457	0	32861	
6458	0	32832	
6459	0	32812	
6460	0	32924	
6461	0	33045	
6462	0	33024	
6463	0	32916	
6464	0	32816	
6465	0	32685	
6466	0	32709	
6467	0	32704	
6468	0	32656	
6469	0	32628	
6470	0	32655	
6471	0	32580	
6472	0	32668	
6473	0	32688	
6474	0	32632	
6475	0	32720	
6476	0	32784	
6477	0	32796	
6478	0	32796	
6479	0	32800	
6480	0	32856	
6481	0	32828	
6482	0	32720	
6483	0	32901	
6484	0	33024	
6485	0	32834	
6486	0	32692	
6487	0	32800	
6488	0	32760	
6489	0	32636	
6490	0	32774	
6491	0	32724	
6492	0	32616	
6493	0	32692	
6494	0	32672	
6495	0	32761	
6496	0	33008	
6497	0	32744	
6498	0	32644	
6499	0	32812	
6500	0	33156	
6501	0	33592	
6502	0	32788	
6503	0	32588	
6504	0	32712	
6505	0	32672	
6506	0	32812	
6507	0	32816	
6508	0	32584	
6509	0	32692	
6510	0	32832	
6511	0	32804	
6512	0	32656	
6513	0	32484	
6514	0	32228	
6515	0	32452	
6516	0	32832	
6517	0	33320	
6518	0	32848	
6519	0	33000	
6520	0	32800	
6521	0	32741	
6522	0	32784	
6523	0	32892	
6524	0	33012	
6525	0	32920	
6526	0	32904	
6527	0	32786	
6528	0	32680	
6529	0	32644	
6530	0	32744	
6531	0	32516	
6532	0	32684	
6533	0	32700	
6534	0	32705	
6535	0	32812	
6536	0	32836	
6537	0	32904	
6538	0	32760	
6539	0	32804	
6540	0	32672	
6541	0	32838	
6542	0	32756	
6543	0	32768	
6544	0	32832	
6545	0	32716	
6546	0	32596	
6547	0	32608	
6548	0	32501	
6549	0	32604	
6550	0	32640	
6551	0	32772	
6552	0	32764	
6553	0	32912	
6554	0	32936	
6555	0	33018	
6556	0	33020	
6557	0	32925	
6558	0	32940	
6559	0	33056	
6560	0	33132	
6561	0	33168	
6562	0	33236	
6563	0	33092	
6564	0	32916	
6565	0	32693	
6566	0	32568	
6567	0	32548	
6568	0	32640	
6569	0	32632	
6570	0	32596	
6571	0	32565	
6572	0	32536	
6573	0	32612	
6574	0	32676	
6575	0	32752	
6576	0	32720	
6577	0	32768	
6578	0	32748	
6579	0	32752	
6580	0	32780	
6581	0	32804	
6582	0	32717	
6583	0	32824	
6584	0	32928	
6585	0	32992	
6586	0	32656	
6587	0	32576	
6588	0	32902	
6589	0	32860	
6590	0	32720	
6591	0	32673	
6592	0	32632	
6593	0	32676	
6594	0	32792	
6595	0	32753	
6596	0	32756	
6597	0	32792	
6598	0	32804	
6599	0	32876	
6600	0	32912	
6601	0	33016	
6602	0	32800	
6603	0	32736	
6604	0	32824	
6605	0	32708	
6606	0	32892	
6607	0	32934	
6608	0	32962	
6609	0	32816	
6610	0	32568	
6611	0	32532	
6612	0	32776	
6613	0	32836	
6614	0	32496	
6615	0	32636	
6616	0	33104	
6617	0	32764	
6618	0	32620	
6619	0	32760	
6620	0	32724	
6621	0	32777	
6622	0	32744	
6623	0	32686	
6624	0	32996	
6625	0	32996	
6626	0	32808	
6627	0	32682	
6628	0	32724	
6629	0	32740	
6630	0	32808	
6631	0	32676	
6632	0	32696	
6633	0	32766	
6634	0	32772	
6635	0	32764	
6636	0	32804	
6637	0	32756	
6638	0	32828	
6639	0	32872	
6640	0	32686	
6641	0	32647	
6642	0	33056	
6643	0	32708	
6644	0	32686	
6645	0	32588	
6646	0	32585	
6647	0	32876	
6648	0	33304	
6649	0	33041	
6650	0	33072	
6651	0	32654	
6652	0	32644	
6653	0	32702	
6654	0	32448	
6655	0	32577	
6656	0	32520	
6657	0	32580	
6658	0	33008	
6659	0	32896	
6660	0	32812	
6661	0	33116	
6662	0	32844	
6663	0	32825	
6664	0	32908	
6665	0	32836	
6666	0	32680	
6667	0	32584	
6668	0	32589	
6669	0	32577	
6670	0	32724	
6671	0	33174	
6672	0	33152	
6673	0	32588	
6674	0	32560	
6675	0	32680	
6676	0	32668	
6677	0	32780	
6678	0	32940	
6679	0	32788	
6680	0	32744	
6681	0	32800	
6682	0	32873	
6683	0	32756	
6684	0	32764	
6685	0	32868	
6686	0	32818	
6687	0	32752	
6688	0	32792	
6689	0	32780	
6690	0	32708	
6691	0	32738	
6692	0	32726	
6693	0	32636	
6694	0	32721	
6695	0	32736	
6696	0	32808	
6697	0	32796	
6698	0	32788	
6699	0	32808	
6700	0	32748	
6701	0	32790	
6702	0	32820	
6703	0	32894	
6704	0	32864	
6705	0	32868	
6706	0	32886	
6707	0	32788	
6708	0	32752	
6709	0	32780	
6710	0	32704	
6711	0	32692	
6712	0	32680	
6713	0	32704	
6714	0	32668	
6715	0	32688	
6716	0	32717	
6717	0	32768	
6718	0	32832	
6719	0	32868	
6720	0	32940	
6721	0	32940	
6722	0	32876	
6723	0	32864	
6724	0	32832	
6725	0	32781	
6726	0	32872	
6727	0	32748	
6728	0	32757	
6729	0	32680	
6730	0	32712	
6731	0	32772	
6732	0	32760	
6733	0	32736	
6734	0	32740	
6735	0	32748	
6736	0	32884	
6737	0	32804	
6738	0	32745	
6739	0	32796	
6740	0	32824	
6741	0	32940	
6742	0	32832	
6743	0	32744	
6744	0	32868	
6745	0	32781	
6746	0	32544	
6747	0	32832	
6748	0	33057	
6749	0	32696	
6750	0	32752	
6751	0	32820	
6752	0	32720	
6753	0	32708	
6754	0	32724	
6755	0	32676	
6756	0	32660	
6757	0	32752	
6758	0	32868	
6759	0	32768	
6760	0	32756	
6761	0	32756	
6762	0	32864	
6763	0	33012	
6764	0	32908	
6765	0	32776	
6766	0	32720	
6767	0	32777	
6768	0	32784	
6769	0	32832	
6770	0	32872	
6771	0	32772	
6772	0	32648	
6773	0	32660	
6774	0	32716	
6775	0	32798	
6776	0	32760	
6777	0	32708	
6778	0	32756	
6779	0	32764	
6780	0	32893	
6781	0	32872	
6782	0	32812	
6783	0	32913	
6784	0	32900	
6785	0	32757	
6786	0	32852	
6787	0	32808	
6788	0	32704	
6789	0	32688	
6790	0	32896	
6791	0	32768	
6792	0	32688	
6793	0	32616	
6794	0	32725	
6795	0	32864	
6796	0	32900	
6797	0	32916	
6798	0	32800	
6799	0	32704	
6800	0	32748	
6801	0	32796	
6802	0	32876	
6803	0	32856	
6804	0	32892	
6805	0	32772	
6806	0	32792	
6807	0	32729	
6808	0	32768	
6809	0	32801	
6810	0	32672	
6811	0	32700	
6812	0	32808	
6813	0	32704	
6814	0	32560	
6815	0	32648	
6816	0	32752	
6817	0	32880	
6818	0	32852	
6819	0	32808	
6820	0	32804	
6821	0	32876	
6822	0	32900	
6823	0	32840	
6824	0	32836	
6825	0	32797	
6826	0	32788	
6827	0	32885	
6828	0	32832	
6829	0	32708	
6830	0	32744	
6831	0	32724	
6832	0	32648	
6833	0	32728	
6834	0	32836	
6835	0	32744	
6836	0	32632	
6837	0	32680	
6838	0	32752	
6839	0	32872	
6840	0	32868	
6841	0	32857	
6842	0	32821	
6843	0	32868	
6844	0	32928	
6845	0	32896	
6846	0	32880	
6847	0	32820	
6848	0	32772	
6849	0	32756	
6850	0	32672	
6851	0	32716	
6852	0	32680	
6853	0	32716	
6854	0	32680	
6855	0	32704	
6856	0	32772	
6857	0	32900	
6858	0	32830	
6859	0	32798	
6860	0	32717	
6861	0	32748	
6862	0	32880	
6863	0	33036	
6864	0	32848	
6865	0	32940	
6866	0	32812	
6867	0	32644	
6868	0	32932	
6869	0	32656	
6870	0	32648	
6871	0	32604	
6872	0	32772	
6873	0	32772	
6874	0	32612	
6875	0	32972	
6876	0	32820	
6877	0	32664	
6878	0	32597	
6879	0	32849	
6880	0	33044	
6881	0	32864	
6882	0	32774	
6883	0	32800	
6884	0	32708	
6885	0	32908	
6886	0	32896	
6887	0	32848	
6888	0	32888	
6889	0	32776	
6890	0	32632	
6891	0	32656	
6892	0	32620	
6893	0	32655	
6894	0	32864	
6895	0	32892	
6896	0	32740	
6897	0	32692	
6898	0	32788	
6899	0	32888	
6900	0	32793	
6901	0	32792	
6902	0	32824	
6903	0	32852	
6904	0	32816	
6905	0	32692	
6906	0	32724	
6907	0	32734	
6908	0	32796	
6909	0	33012	
6910	0	32940	
6911	0	32788	
6912	0	32665	
6913	0	32637	
6914	0	32716	
6915	0	32732	
6916	0	32741	
6917	0	32788	
6918	0	32724	
6919	0	32700	
6920	0	32804	
6921	0	32872	
6922	0	32878	
6923	0	32880	
6924	0	32776	
6925	0	32828	
6926	0	32820	
6927	0	32780	
6928	0	32784	
6929	0	32760	
6930	0	32746	
6931	0	32673	
6932	0	32732	
6933	0	32732	
6934	0	32720	
6935	0	32724	
6936	0	32740	
6937	0	32832	
6938	0	32789	
6939	0	32804	
6940	0	32776	
6941	0	32778	
6942	0	32794	
6943	0	32756	
6944	0	32853	
6945	0	32902	
6946	0	32864	
6947	0	32824	
6948	0	32896	
6949	0	32764	
6950	0	32718	
6951	0	32732	
6952	0	32716	
6953	0	32736	
6954	0	32720	
6955	0	32752	
6956	0	32724	
6957	0	32740	
6958	0	32762	
6959	0	32800	
6960	0	32828	
6961	0	32768	
6962	0	32776	
6963	0	32820	
6964	0	32856	
6965	0	32793	
6966	0	32778	
6967	0	32788	
6968	0	32900	
6969	0	32808	
6970	0	32840	
6971	0	32788	
6972	0	32743	
6973	0	32680	
6974	0	32676	
6975	0	32773	
6976	0	32680	
6977	0	32732	
6978	0	32928	
6979	0	32792	
6980	0	32788	
6981	0	32796	
6982	0	32736	
6983	0	32772	
6984	0	32816	
6985	0	32775	
6986	0	32760	
6987	0	32764	
6988	0	32636	
6989	0	32740	
6990	0	32680	
6991	0	32700	
6992	0	32836	
6993	0	33128	
6994	0	32768	
6995	0	32692	
6996	0	32736	
6997	0	32748	
6998	0	32736	
6999	0	32724	
7000	0	32644	
7001	0	32824	
7002	0	32852	
7003	0	32860	
7004	0	32968	
7005	0	32972	
7006	0	32816	
7007	0	32736	
7008	0	32766	
7009	0	32724	
7010	0	32644	
7011	0	32708	
7012	0	32833	
7013	0	32736	
7014	0	32692	
7015	0	32668	
7016	0	32740	
7017	0	32764	
7018	0	32750	
7019	0	32792	
7020	0	32792	
7021	0	32922	
7022	0	32928	
7023	0	33020	
7024	0	33096	
7025	0	32684	
7026	0	32653	
7027	0	32728	
7028	0	32756	
7029	0	32733	
7030	0	32816	
7031	0	32724	
7032	0	32692	
7033	0	32708	
7034	0	32816	
7035	0	32750	
7036	0	32716	
7037	0	32704	
7038	0	32800	
7039	0	32780	
7040	0	32798	
7041	0	32870	
7042	0	32804	
7043	0	32844	
7044	0	32833	
7045	0	32880	
7046	0	32752	
7047	0	32756	
7048	0	32740	
7049	0	32768	
7050	0	32736	
7051	0	32776	
7052	0	32764	
7053	0	32716	
7054	0	32684	
7055	0	32692	
7056	0	32740	
7057	0	32721	
7058	0	32752	
7059	0	32644	
7060	0	32996	
7061	0	33140	
7062	0	32704	
7063	0	32832	
7064	0	32800	
7065	0	32764	
7066	0	32812	
7067	0	32724	
7068	0	32792	
7069	0	32776	
7070	0	32740	
7071	0	32772	
7072	0	32704	
7073	0	32708	
7074	0	32750	
7075	0	32736	
7076	0	32768	
7077	0	32712	
7078	0	32700	
7079	0	32744	
7080	0	32924	
7081	0	32964	
7082	0	32820	
7083	0	32848	
7084	0	32774	
7085	0	32856	
7086	0	32772	
7087	0	32760	
7088	0	32708	
7089	0	32776	
7090	0	32692	
7091	0	32836	
7092	0	32769	
7093	0	32724	
7094	0	32716	
7095	0	32741	
7096	0	32712	
7097	0	32792	
7098	0	32736	
7099	0	32817	
7100	0	32777	
7101	0	32980	
7102	0	33053	
7103	0	32796	
7104	0	32760	
7105	0	32780	
7106	0	32777	
7107	0	32772	
7108	0	32800	
7109	0	32794	
7110	0	32724	
7111	0	32661	
7112	0	32664	
7113	0	32704	
7114	0	32732	
7115	0	32774	
7116	0	32952	
7117	0	32868	
7118	0	32708	
7119	0	32636	
7120	0	32709	
7121	0	32713	
7122	0	32852	
7123	0	33085	
7124	0	32982	
7125	0	32847	
7126	0	32836	
7127	0	32784	
7128	0	32652	
7129	0	32842	
7130	0	32808	
7131	0	32660	
7132	0	32692	
7133	0	32692	
7134	0	32716	
7135	0	32736	
7136	0	32740	
7137	0	32794	
7138	0	32756	
7139	0	32764	
7140	0	32825	
7141	0	32896	
7142	0	32858	
7143	0	32836	
7144	0	32830	
7145	0	32820	
7146	0	32794	
7147	0	32796	
7148	0	32808	
7149	0	32741	
7150	0	32736	
7151	0	32712	
7152	0	32698	
7153	0	32752	
7154	0	32720	
7155	0	32744	
7156	0	32732	
7157	0	32772	
7158	0	32804	
7159	0	32822	
7160	0	32756	
7161	0	32816	
7162	0	32864	
7163	0	32872	
7164	0	32816	
7165	0	32864	
7166	0	32844	
7167	0	32780	
7168	0	32784	
7169	0	32768	
7170	0	32766	
7171	0	32737	
7172	0	32724	
7173	0	32620	
7174	0	32800	
7175	0	32909	
7176	0	32736	
7177	0	32692	
7178	0	32868	
7179	0	32820	
7180	0	32816	
7181	0	32799	
7182	0	32804	
7183	0	32832	
7184	0	32800	
7185	0	32792	
7186	0	32944	
7187	0	32792	
7188	0	32760	
7189	0	32796	
7190	0	32772	
7191	0	32632	
7192	0	32804	
7193	0	32686	
7194	0	32606	
7195	0	32856	
7196	0	32788	
7197	0	32740	
7198	0	32756	
7199	0	32801	
7200	0	32780	
7201	0	32784	
7202	0	32754	
7203	0	32812	
7204	0	33020	
7205	0	32764	
7206	0	32756	
7207	0	32704	
7208	0	32864	
7209	0	33030	
7210	0	32932	
7211	0	32762	
7212	0	32608	
7213	0	32624	
7214	0	32632	
7215	0	32740	
7216	0	32756	
7217	0	32788	
7218	0	32820	
7219	0	32752	
7220	0	32736	
7221	0	32733	
7222	0	32860	
7223	0	32856	
7224	0	32932	
7225	0	32965	
7226	0	32868	
7227	0	32949	
7228	0	32708	
7229	0	32700	
7230	0	32698	
7231	0	32668	
7232	0	32776	
7233	0	32840	
7234	0	32644	
7235	0	32744	
7236	0	32856	
7237	0	32892	
7238	0	32732	
7239	0	32628	
7240	0	32760	
7241	0	32796	
7242	0	32876	
7243	0	32856	
7244	0	32852	
7245	0	32832	
7246	0	32730	
7247	0	32592	
7248	0	32716	
7249	0	32768	
7250	0	32668	
7251	0	32805	
7252	0	32741	
7253	0	32712	
7254	0	32700	
7255	0	32736	
7256	0	32768	
7257	0	32800	
7258	0	32820	
7259	0	32772	
7260	0	32808	
7261	0	32800	
7262	0	32900	
7263	0	32780	
7264	0	32792	
7265	0	32808	
7266	0	32744	
7267	0	32748	
7268	0	32800	
7269	0	32704	
7270	0	32740	
7271	0	32816	
7272	0	32817	
7273	0	32720	
7274	0	32716	
7275	0	32692	
7276	0	32696	
7277	0	32750	
7278	0	32772	
7279	0	32802	
7280	0	32836	
7281	0	32908	
7282	0	32852	
7283	0	32845	
7284	0	32856	
7285	0	32824	
7286	0	32764	
7287	0	32736	
7288	0	32816	
7289	0	32784	
7290	0	32672	
7291	0	32684	
7292	0	32828	
7293	0	32800	
7294	0	32757	
7295	0	32628	
7296	0	32697	
7297	0	32748	
7298	0	32876	
7299	0	32780	
7300	0	32780	
7301	0	32786	
7302	0	32816	
7303	0	32820	
7304	0	32850	
7305	0	32844	
7306	0	32840	
7307	0	32764	
7308	0	32759	
7309	0	32740	
7310	0	32796	
7311	0	32896	
7312	0	32736	
7313	0	32600	
7314	0	32640	
7315	0	32708	
7316	0	32942	
7317	0	32724	
7318	0	32636	
7319	0	32761	
7320	0	32903	
7321	0	32770	
7322	0	32941	
7323	0	32920	
7324	0	32905	
7325	0	32848	
7326	0	32776	
7327	0	32860	
7328	0	32929	
7329	0	32820	
7330	0	32676	
7331	0	32704	
7332	0	32684	
7333	0	32741	
7334	0	32692	
7335	0	32671	
7336	0	32684	
7337	0	32720	
7338	0	32696	
7339	0	32800	
7340	0	32876	
7341	0	32776	
7342	0	32762	
7343	0	32872	
7344	0	32865	
7345	0	32812	
7346	0	32908	
7347	0	32802	
7348	0	32752	
7349	0	32736	
7350	0	32696	
7351	0	32676	
7352	0	32654	
7353	0	32737	
7354	0	32751	
7355	0	32710	
7356	0	32762	
7357	0	32726	
7358	0	32700	
7359	0	32780	
7360	0	33016	
7361	0	33048	
7362	0	32728	
7363	0	32784	
7364	0	32765	
7365	0	32812	
7366	0	32764	
7367	0	32900	
7368	0	32768	
7369	0	32728	
7370	0	32660	
7371	0	32688	
7372	0	32734	
7373	0	32624	
7374	0	32708	
7375	0	32684	
7376	0	32772	
7377	0	32844	
7378	0	32784	
7379	0	32780	
7380	0	32884	
7381	0	32796	
7382	0	32816	
7383	0	32904	
7384	0	32837	
7385	0	32814	
7386	0	32764	
7387	0	32784	
7388	0	32772	
7389	0	32708	
7390	0	32736	
7391	0	32700	
7392	0	32757	
7393	0	32724	
7394	0	32820	
7395	0	32852	
7396	0	32796	
7397	0	32768	
7398	0	32752	
7399	0	32744	
7400	0	32812	
7401	0	32812	
7402	0	32836	
7403	0	32852	
7404	0	32812	
7405	0	32784	
7406	0	32844	
7407	0	32748	
7408	0	32764	
7409	0	32805	
7410	0	32838	
7411	0	32700	
7412	0	32660	
7413	0	32824	
7414	0	32776	
7415	0	32788	
7416	0	32669	
7417	0	32750	
7418	0	32720	
7419	0	32749	
7420	0	32704	
7421	0	32888	
7422	0	32940	
7423	0	32856	
7424	0	32832	
7425	0	32736	
7426	0	32788	
7427	0	32812	
7428	0	32764	
7429	0	32680	
7430	0	32704	
7431	0	32654	
7432	0	32622	
7433	0	32662	
7434	0	32832	
7435	0	32764	
7436	0	32804	
7437	0	32857	
7438	0	32900	
7439	0	32769	
7440	0	32727	
7441	0	32824	
7442	0	32770	
7443	0	32784	
7444	0	32764	
7445	0	32836	
7446	0	32748	
7447	0	32708	
7448	0	32737	
7449	0	32756	
7450	0	32688	
7451	0	32640	
7452	0	32657	
7453	0	32704	
7454	0	32700	
7455	0	32800	
7456	0	32908	
7457	0	32788	
7458	0	32828	
7459	0	32841	
7460	0	32932	
7461	0	32846	
7462	0	32852	
7463	0	32844	
7464	0	32816	
7465	0	32828	
7466	0	32836	
7467	0	32764	
7468	0	32812	
7469	0	32780	
7470	0	32816	
7471	0	32720	
7472	0	32716	
7473	0	32792	
7474	0	32676	
7475	0	32724	
7476	0	32736	
7477	0	32748	
7478	0	32714	
7479	0	32826	
7480	0	32840	
7481	0	32864	
7482	0	32848	
7483	0	32792	
7484	0	32824	
7485	0	32772	
7486	0	32728	
7487	0	32748	
7488	0	32728	
7489	0	32638	
7490	0	32724	
7491	0	32896	
7492	0	32756	
7493	0	32736	
7494	0	32668	
7495	0	32740	
7496	0	32796	
7497	0	32718	
7498	0	32736	
7499	0	32736	
7500	0	32744	
7501	0	32680	
7502	0	32808	
7503	0	32892	
7504	0	33164	
7505	0	33185	
7506	0	32744	
7507	0	32708	
7508	0	32720	
7509	0	32684	
7510	0	32720	
7511	0	32776	
7512	0	32724	
7513	0	32736	
7514	0	32736	
7515	0	32800	
7516	0	32852	
7517	0	32852	
7518	0	32792	
7519	0	32812	
7520	0	32776	
7521	0	32804	
7522	0	32801	
7523	0	32820	
7524	0	32880	
7525	0	32788	
7526	0	32884	
7527	0	32740	
7528	0	32720	
7529	0	32748	
7530	0	32721	
7531	0	32648	
7532	0	32718	
7533	0	32644	
7534	0	32634	
7535	0	32668	
7536	0	32812	
7537	0	32868	
7538	0	32728	
7539	0	32684	
7540	0	32788	
7541	0	32808	
7542	0	32728	
7543	0	32830	
7544	0	32853	
7545	0	32768	
7546	0	32980	
7547	0	32945	
7548	0	32689	
7549	0	32668	
7550	0	32656	
7551	0	32732	
7552	0	32677	
7553	0	32702	
7554	0	32740	
7555	0	32736	
7556	0	32728	
7557	0	32645	
7558	0	32748	
7559	0	32916	
7560	0	32968	
7561	0	32832	
7562	0	32728	
7563	0	32780	
7564	0	32880	
7565	0	32788	
7566	0	32892	
7567	0	32884	
7568	0	32784	
7569	0	32673	
7570	0	32752	
7571	0	32709	
7572	0	32708	
7573	0	32652	
7574	0	32644	
7575	0	32748	
7576	0	32772	
7577	0	32958	
7578	0	32864	
7579	0	32800	
7580	0	32756	
7581	0	32766	
7582	0	32816	
7583	0	32780	
7584	0	32816	
7585	0	32828	
7586	0	32846	
7587	0	32804	
7588	0	32724	
7589	0	32740	
7590	0	32704	
7591	0	32716	
7592	0	32758	
7593	0	32764	
7594	0	32688	
7595	0	32652	
7596	0	32796	
7597	0	32790	
7598	0	32724	
7599	0	32748	
7600	0	32760	
7601	0	32884	
7602	0	33092	
7603	0	32968	
7604	0	32876	
7605	0	32864	
7606	0	32848	
7607	0	32797	
7608	0	32692	
7609	0	32676	
7610	0	32672	
7611	0	32678	
7612	0	32756	
7613	0	32712	
7614	0	32629	
7615	0	32636	
7616	0	32784	
7617	0	32800	
7618	0	32692	
7619	0	32741	
7620	0	32796	
7621	0	32876	
7622	0	32800	
7623	0	32832	
7624	0	32832	
7625	0	32920	
7626	0	32756	
7627	0	32768	
7628	0	32748	
7629	0	32710	
7630	0	32696	
7631	0	32768	
7632	0	32684	
7633	0	32754	
7634	0	32673	
7635	0	32696	
7636	0	32732	
7637	0	32764	
7638	0	32772	
7639	0	32748	
7640	0	32704	
7641	0	32816	
7642	0	32900	
7643	0	32872	
7644	0	32856	
7645	0	32812	
7646	0	32900	
7647	0	32792	
7648	0	32644	
7649	0	32822	
7650	0	32720	
7651	0	32820	
7652	0	32769	
7653	0	32698	
7654	0	32700	
7655	0	32680	
7656	0	32708	
7657	0	32703	
7658	0	32780	
7659	0	33031	
7660	0	32985	
7661	0	32768	
7662	0	32724	
7663	0	32808	
7664	0	32848	
7665	0	32764	
7666	0	32748	
7667	0	32748	
7668	0	32788	
7669	0	32752	
7670	0	32801	
7671	0	32732	
7672	0	32704	
7673	0	32801	
7674	0	32805	
7675	0	32700	
7676	0	32728	
7677	0	32780	
7678	0	32720	
7679	0	32854	
7680	0	32900	
7681	0	32836	
7682	0	32816	
7683	0	32828	
7684	0	32852	
7685	0	32900	
7686	0	32725	
7687	0	32736	
7688	0	32792	
7689	0	32774	
7690	0	32728	
7691	0	32688	
7692	0	32704	
7693	0	32748	
7694	0	32708	
7695	0	32768	
7696	0	32760	
7697	0	32749	
7698	0	32896	
7699	0	32909	
7700	0	32720	
7701	0	32708	
7702	0	32796	
7703	0	32804	
7704	0	32908	
7705	0	32772	
7706	0	32804	
7707	0	32804	
7708	0	32821	
7709	0	32741	
7710	0	32704	
7711	0	32834	
7712	0	32848	
7713	0	32840	
7714	0	32720	
7715	0	32737	
7716	0	32704	
7717	0	32804	
7718	0	32760	
7719	0	32692	
7720	0	32804	
7721	0	32844	
7722	0	32816	
7723	0	32824	
7724	0	32856	
7725	0	32824	
7726	0	32908	
7727	0	32808	
7728	0	32846	
7729	0	32788	
7730	0	32750	
7731	0	32720	
7732	0	32712	
7733	0	32633	
7734	0	32628	
7735	0	32724	
7736	0	32759	
7737	0	32736	
7738	0	32860	
7739	0	32872	
7740	0	32716	
7741	0	32876	
7742	0	32885	
7743	0	32860	
7744	0	32820	
7745	0	32852	
7746	0	32724	
7747	0	32844	
7748	0	32836	
7749	0	32824	
7750	0	32848	
7751	0	32804	
7752	0	32776	
7753	0	32628	
7754	0	32692	
7755	0	32712	
7756	0	32768	
7757	0	32732	
7758	0	32728	
7759	0	32728	
7760	0	32790	
7761	0	32776	
7762	0	32886	
7763	0	32748	
7764	0	33061	
7765	0	33108	
7766	0	32616	
7767	0	32556	
7768	0	32600	
7769	0	32708	
7770	0	33113	
7771	0	33125	
7772	0	32708	
7773	0	32608	
7774	0	32684	
7775	0	32661	
7776	0	32668	
7777	0	32692	
7778	0	32704	
7779	0	32748	
7780	0	32848	
7781	0	32800	
7782	0	32780	
7783	0	32860	
7784	0	32848	
7785	0	32812	
7786	0	32752	
7787	0	32764	
7788	0	32776	
7789	0	32748	
7790	0	32792	
7791	0	32764	
7792	0	32756	
7793	0	32732	
7794	0	32676	
7795	0	32853	
7796	0	32812	
7797	0	32756	
7798	0	32800	
7799	0	32836	
7800	0	32844	
7801	0	32749	
7802	0	32781	
7803	0	32945	
7804	0	32980	
7805	0	32828	
7806	0	32812	
7807	0	32752	
7808	0	32860	
7809	0	32857	
7810	0	32684	
7811	0	32668	
7812	0	32740	
7813	0	32792	
7814	0	32725	
7815	0	32740	
7816	0	32703	
7817	0	32812	
7818	0	32728	
7819	0	32788	
7820	0	32828	
7821	0	32788	
7822	0	32808	
7823	0	32746	
7824	0	32808	
7825	0	32816	
7826	0	32864	
7827	0	32900	
7828	0	32800	
7829	0	32764	
7830	0	32816	
7831	0	32684	
7832	0	32649	
7833	0	32720	
7834	0	32732	
7835	0	32680	
7836	0	32688	
7837	0	32736	
7838	0	32792	
7839	0	32772	
7840	0	32840	
7841	0	32856	
7842	0	32880	
7843	0	32864	
7844	0	32780	
7845	0	32845	
7846	0	32812	
7847	0	32758	
7848	0	32772	
7849	0	32828	
7850	0	32784	
7851	0	32694	
7852	0	32676	
7853	0	32684	
7854	0	32620	
7855	0	32736	
7856	0	32740	
7857	0	32728	
7858	0	32740	
7859	0	32740	
7860	0	32812	
7861	0	32877	
7862	0	32796	
7863	0	32884	
7864	0	32820	
7865	0	32768	
7866	0	32736	
7867	0	32636	
7868	0	32728	
7869	0	32760	
7870	0	32836	
7871	0	32844	
7872	0	32696	
7873	0	32724	
7874	0	32608	
7875	0	32800	
7876	0	32892	
7877	0	32720	
7878	0	32652	
7879	0	32696	
7880	0	32644	
7881	0	32728	
7882	0	32948	
7883	0	32832	
7884	0	32856	
7885	0	32797	
7886	0	32761	
7887	0	32717	
7888	0	32849	
7889	0	32692	
7890	0	32640	
7891	0	32780	
7892	0	32861	
7893	0	32788	
7894	0	32868	
7895	0	32816	
7896	0	32880	
7897	0	32776	
7898	0	32792	
7899	0	32840	
7900	0	32800	
7901	0	32848	
7902	0	32892	
7903	0	32828	
7904	0	32924	
7905	0	32872	
7906	0	32860	
7907	0	32804	
7908	0	32817	
7909	0	32748	
7910	0	32728	
7911	0	32696	
7912	0	32736	
7913	0	32745	
7914	0	32756	
7915	0	32746	
7916	0	32748	
7917	0	32820	
7918	0	32792	
7919	0	32784	
7920	0	32768	
7921	0	32832	
7922	0	32856	
7923	0	32808	
7924	0	32833	
7925	0	32800	
7926	0	32844	
7927	0	32836	
7928	0	32692	
7929	0	32732	
7930	0	32760	
7931	0	32781	
7932	0	32740	
7933	0	32756	
7934	0	32672	
7935	0	32716	
7936	0	32692	
7937	0	32758	
7938	0	32756	
7939	0	32784	
7940	0	32868	
7941	0	32772	
7942	0	32916	
7943	0	32952	
7944	0	32896	
7945	0	32832	
7946	0	32744	
7947	0	32808	
7948	0	32656	
7949	0	32740	
7950	0	32740	
7951	0	32826	
7952	0	32764	
7953	0	32709	
7954	0	32748	
7955	0	32796	
7956	0	32740	
7957	0	32696	
7958	0	32804	
7959	0	32816	
7960	0	32808	
7961	0	32824	
7962	0	32849	
7963	0	32890	
7964	0	32892	
7965	0	32852	
7966	0	32794	
7967	0	32748	
7968	0	32765	
7969	0	32746	
7970	0	32828	
7971	0	32720	
7972	0	32710	
7973	0	32631	
7974	0	32692	
7975	0	32696	
7976	0	32869	
7977	0	32804	
7978	0	32728	
7979	0	32804	
7980	0	32790	
7981	0	32744	
7982	0	32844	
7983	0	32826	
7984	0	32856	
7985	0	32836	
7986	0	32824	
7987	0	32760	
7988	0	32748	
7989	0	32712	
7990	0	32700	
7991	0	32741	
7992	0	32740	
7993	0	32716	
7994	0	32781	
7995	0	32772	
7996	0	32788	
7997	0	32704	
7998	0	32761	
7999	0	32830	
8000	0	32864	
8001	0	32840	
8002	0	32808	
8003	0	32823	
8004	0	32780	
8005	0	32801	
8006	0	32768	
8007	0	32736	
8008	0	32805	
8009	0	32788	
8010	0	32717	
8011	0	32729	
8012	0	32705	
8013	0	32740	
8014	0	32676	
8015	0	32732	
8016	0	32760	
8017	0	32784	
8018	0	32784	
8019	0	32832	
8020	0	32840	
8021	0	32852	
8022	0	32764	
8023	0	32804	
8024	0	32820	
8025	0	32836	
8026	0	32776	
8027	0	32772	
8028	0	32748	
8029	0	32816	
8030	0	32728	
8031	0	32756	
8032	0	32740	
8033	0	32776	
8034	0	32708	
8035	0	32744	
8036	0	32756	
8037	0	32772	
8038	0	32792	
8039	0	32876	
8040	0	32812	
8041	0	32994	
8042	0	32904	
8043	0	32788	
8044	0	32784	
8045	0	32756	
8046	0	32742	
8047	0	32788	
8048	0	32812	
8049	0	32800	
8050	0	32730	
8051	0	32748	
8052	0	32709	
8053	0	32653	
8054	0	32688	
8055	0	32712	
8056	0	32808	
8057	0	32764	
8058	0	32784	
8059	0	32804	
8060	0	32784	
8061	0	32856	
8062	0	32864	
8063	0	32848	
8064	0	32912	
8065	0	32860	
8066	0	32740	
8067	0	32676	
8068	0	32604	
8069	0	32648	
8070	0	32784	
8071	0	32700	
8072	0	32662	
8073	0	32734	
8074	0	32872	
8075	0	32792	
8076	0	32649	
8077	0	32668	
8078	0	32868	
8079	0	32936	
8080	0	32697	
8081	0	32832	
8082	0	32892	
8083	0	32904	
8084	0	32880	
8085	0	32848	
8086	0	32892	
8087	0	32736	
8088	0	32716	
8089	0	32870	
8090	0	32737	
8091	0	32736	
8092	0	32705	
8093	0	32788	
8094	0	32712	
8095	0	32720	
8096	0	32740	
8097	0	32708	
8098	0	32748	
8099	0	32784	
8100	0	32824	
8101	0	32824	
8102	0	32716	
8103	0	32756	
8104	0	32804	
8105	0	32888	
8106	0	32916	
8107	0	33160	
8108	0	32848	
8109	0	32495	
8110	0	32744	
8111	0	32782	
8112	0	32733	
8113	0	32732	
8114	0	32788	
8115	0	32780	
8116	0	32740	
8117	0	32680	
8118	0	32728	
8119	0	32764	
8120	0	32788	
8121	0	32833	
8122	0	32865	
8123	0	32752	
8124	0	32812	
8125	0	32933	
8126	0	32918	
8127	0	32732	
8128	0	32684	
8129	0	32692	
8130	0	32756	
8131	0	32772	
8132	0	32712	
8133	0	32672	
8134	0	32704	
8135	0	32780	
8136	0	32792	
8137	0	32920	
8138	0	32901	
8139	0	32732	
8140	0	32804	
8141	0	32880	
8142	0	32861	
8143	0	32872	
8144	0	32848	
8145	0	32861	
8146	0	32880	
8147	0	32760	
8148	0	32764	
8149	0	32744	
8150	0	32676	
8151	0	32744	
8152	0	32624	
8153	0	32656	
8154	0	32580	
8155	0	32836	
8156	0	32924	
8157	0	32804	
8158	0	32824	
8159	0	32712	
8160	0	32848	
8161	0	32856	
8162	0	32752	
8163	0	32788	
8164	0	32816	
8165	0	32804	
8166	0	32728	
8167	0	32696	
8168	0	32844	
8169	0	32961	
8170	0	32596	
8171	0	32538	
8172	0	32672	
8173	0	32780	
8174	0	32768	
8175	0	32760	
8176	0	32796	
8177	0	32782	
8178	0	32700	
8179	0	32668	
8180	0	32692	
8181	0	32812	
8182	0	32972	
8183	0	32996	
8184	0	32900	
8185	0	32752	
8186	0	32732	
8187	0	32668	
8188	0	32628	
8189	0	32636	
8190	0	33044	
8191	0	32980	
8192	0	32768	
8193	0	32644	
8194	0	32751	
8195	0	32692	
8196	0	32640	
8197	0	32600	
8198	0	32724	
8199	0	32836	
8200	0	32857	
8201	0	32860	
8202	0	32844	
8203	0	32820	
8204	0	32904	
8205	0	32756	
8206	0	32776	
8207	0	32768	
8208	0	32789	
8209	0	32808	
8210	0	32756	
8211	0	32742	
8212	0	32704	
8213	0	32852	
8214	0	32768	
8215	0	32737	
8216	0	32692	
8217	0	32814	
8218	0	32810	
8219	0	32805	
8220	0	32868	
8221	0	32852	
8222	0	32868	
8223	0	32848	
8224	0	32856	
8225	0	32840	
8226	0	32784	
8227	0	32782	
8228	0	32782	
8229	0	32681	
8230	0	32712	
8231	0	32774	
8232	0	32756	
8233	0	32678	
8234	0	32752	
8235	0	32784	
8236	0	32808	
8237	0	32764	
8238	0	32870	
8239	0	32836	
8240	0	32736	
8241	0	32812	
8242	0	32833	
8243	0	32840	
8244	0	32901	
8245	0	32868	
8246	0	32844	
8247	0	32732	
8248	0	32836	
8249	0	32752	
8250	0	32700	
8251	0	32772	
8252	0	32706	
8253	0	32676	
8254	0	32676	
8255	0	32608	
8256	0	32836	
8257	0	33000	
8258	0	32932	
8259	0	32888	
8260	0	32832	
8261	0	32838	
8262	0	32822	
8263	0	32852	
8264	0	32841	
8265	0	32777	
8266	0	32844	
8267	0	32725	
8268	0	32752	
8269	0	32736	
8270	0	32808	
8271	0	32704	
8272	0	32644	
8273	0	32654	
8274	0	32614	
8275	0	32693	
8276	0	32796	
8277	0	32740	
8278	0	32736	
8279	0	32732	
8280	0	32772	
8281	0	32784	
8282	0	32820	
8283	0	32784	
8284	0	32857	
8285	0	32796	
8286	0	32800	
8287	0	32760	
8288	0	32756	
8289	0	32704	
8290	0	32704	
8291	0	32740	
8292	0	32764	
8293	0	32696	
8294	0	32756	
8295	0	32670	
8296	0	32696	
8297	0	32736	
8298	0	32864	
8299	0	32789	
8300	0	33000	
8301	0	32816	
8302	0	32784	
8303	0	32789	
8304	0	32856	
8305	0	32852	
8306	0	32789	
8307	0	32721	
8308	0	32782	
8309	0	32740	
8310	0	32604	
8311	0	32716	
8312	0	32975	
8313	0	32632	
8314	0	32600	
8315	0	32752	
8316	0	32820	
8317	0	32815	
8318	0	32873	
8319	0	32784	
8320	0	32840	
8321	0	32824	
8322	0	32879	
8323	0	32868	
8324	0	32924	
8325	0	32808	
8326	0	32775	
8327	0	32796	
8328	0	32772	
8329	0	32709	
8330	0	32716	
8331	0	32776	
8332	0	32748	
8333	0	32896	
8334	0	32808	
8335	0	32764	
8336	0	32688	
8337	0	32740	
8338	0	32692	
8339	0	32725	
8340	0	32744	
8341	0	32792	
8342	0	32704	
8343	0	32824	
8344	0	33000	
8345	0	32814	
8346	0	32726	
8347	0	32664	
8348	0	32760	
8349	0	32620	
8350	0	32636	
8351	0	32864	
8352	0	32644	
8353	0	32676	
8354	0	32720	
8355	0	32692	
8356	0	32765	
8357	0	32789	
8358	0	32801	
8359	0	32788	
8360	0	32824	
8361	0	32836	
8362	0	32861	
8363	0	32878	
8364	0	32800	
8365	0	32784	
8366	0	32792	
8367	0	32884	
8368	0	32889	
8369	0	32773	
8370	0	32664	
8371	0	32660	
8372	0	32706	
8373	0	32832	
8374	0	32685	
8375	0	32684	
8376	0	32649	
8377	0	32692	
8378	0	32812	
8379	0	32973	
8380	0	33008	
8381	0	32948	
8382	0	32756	
8383	0	32840	
8384	0	32844	
8385	0	32761	
8386	0	32772	
8387	0	32788	
8388	0	32725	
8389	0	32653	
8390	0	32746	
8391	0	32792	
8392	0	32768	
8393	0	32836	
8394	0	32805	
8395	0	32748	
8396	0	32708	
8397	0	32736	
8398	0	32844	
8399	0	32760	
8400	0	32752	
8401	0	32840	
8402	0	32824	
8403	0	32788	
8404	0	32800	
8405	0	32872	
8406	0	32784	
8407	0	32804	
8408	0	32724	
8409	0	32766	
8410	0	32872	
8411	0	32700	
8412	0	32600	
8413	0	32680	
8414	0	32744	
8415	0	32668	
8416	0	32780	
8417	0	32772	
8418	0	32820	
8419	0	32805	
8420	0	32792	
8421	0	32840	
8422	0	32824	
8423	0	32804	
8424	0	32832	
8425	0	32828	
8426	0	32884	
8427	0	32832	
8428	0	32782	
8429	0	32756	
8430	0	32792	
8431	0	32692	
8432	0	32700	
8433	0	32712	
8434	0	32728	
8435	0	32752	
8436	0	32804	
8437	0	32892	
8438	0	32868	
8439	0	32840	
8440	0	32856	
8441	0	32879	
8442	0	32840	
8443	0	32869	
8444	0	32832	
8445	0	32853	
8446	0	32868	
8447	0	32764	
8448	0	32756	
8449	0	32768	
8450	0	32684	
8451	0	32660	
8452	0	32704	
8453	0	32720	
8454	0	32684	
8455	0	32752	
8456	0	32790	
8457	0	32756	
8458	0	32792	
8459	0	32772	
8460	0	32820	
8461	0	32840	
8462	0	32804	
8463	0	32788	
8464	0	32780	
8465	0	32832	
8466	0	32936	
8467	0	32872	
8468	0	32804	
8469	0	32776	
8470	0	32705	
8471	0	32629	
8472	0	32664	
8473	0	32704	
8474	0	32702	
8475	0	32756	
8476	0	32800	
8477	0	32828	
8478	0	32836	
8479	0	32780	
8480	0	32828	
8481	0	32912	
8482	0	32788	
8483	0	32900	
8484	0	32861	
8485	0	32752	
8486	0	32804	
8487	0	32768	
8488	0	32750	
8489	0	32868	
8490	0	32812	
8491	0	32688	
8492	0	32733	
8493	0	32732	
8494	0	32672	
8495	0	32628	
8496	0	32813	
8497	0	32837	
8498	0	32812	
8499	0	32932	
8500	0	32768	
8501	0	32797	
8502	0	32860	
8503	0	32860	
8504	0	32868	
8505	0	32736	
8506	0	32714	
8507	0	32824	
8508	0	32868	
8509	0	32744	
8510	0	32736	
8511	0	32664	
8512	0	32752	
8513	0	32700	
8514	0	32728	
8515	0	32732	
8516	0	32736	
8517	0	32816	
8518	0	32780	
8519	0	32812	
8520	0	33016	
8521	0	33088	
8522	0	32837	
8523	0	32836	
8524	0	32760	
8525	0	32772	
8526	0	32780	
8527	0	32856	
8528	0	32804	
8529	0	32640	
8530	0	32628	
8531	0	32820	
8532	0	32800	
8533	0	32752	
8534	0	32712	
8535	0	32724	
8536	0	32744	
8537	0	32740	
8538	0	32800	
8539	0	32788	
8540	0	32836	
8541	0	32824	
8542	0	32848	
8543	0	32828	
8544	0	32860	
8545	0	32864	
8546	0	32848	
8547	0	32764	
8548	0	32700	
8549	0	32692	
8550	0	32796	
8551	0	32636	
8552	0	32706	
8553	0	32704	
8554	0	32700	
8555	0	32716	
8556	0	32724	
8557	0	32777	
8558	0	32766	
8559	0	32788	
8560	0	32836	
8561	0	32904	
8562	0	32852	
8563	0	32840	
8564	0	32816	
8565	0	32820	
8566	0	32816	
8567	0	32848	
8568	0	32860	
8569	0	32730	
8570	0	32684	
8571	0	32669	
8572	0	32812	
8573	0	32860	
8574	0	32636	
8575	0	32716	
8576	0	32736	
8577	0	32784	
8578	0	32740	
8579	0	32728	
8580	0	32808	
8581	0	32764	
8582	0	32800	
8583	0	32750	
8584	0	32824	
8585	0	32892	
8586	0	32804	
8587	0	32724	
8588	0	32808	
8589	0	32776	
8590	0	32730	
8591	0	32696	
8592	0	32712	
8593	0	32752	
8594	0	33040	
8595	0	32920	
8596	0	32796	
8597	0	32700	
8598	0	32716	
8599	0	32776	
8600	0	32752	
8601	0	32824	
8602	0	32844	
8603	0	32824	
8604	0	32812	
8605	0	32780	
8606	0	32828	
8607	0	32764	
8608	0	32800	
8609	0	32794	
8610	0	32697	
8611	0	32752	
8612	0	32648	
8613	0	32744	
