# OpenSignals Text File Format. Version 1
# {"00:07:80:4D:2E:9E": {"sensor": ["EMG"], "device name": "00:07:80:4D:2E:9E", "column": ["nSeq", "DI", "CH1"], "sync interval": 2, "time": "12:37:40.666", "comments": "", "device connection": "BTH00:07:80:4D:2E:9E", "channels": [1], "keywords": "", "mode": 0, "digital IO": [0, 1], "firmware version": 774, "device": "biosignalsplux", "position": 0, "sampling rate": 1000, "label": ["CH1"], "resolution": [16], "date": "2020-8-1", "special": [{}]}}
# EndOfHeader
0	0	32812	
1	0	32813	
2	0	32800	
3	0	32784	
4	0	32765	
5	0	32828	
6	0	32796	
7	0	32756	
8	0	32812	
9	0	32832	
10	0	32832	
11	0	32788	
12	0	32832	
13	0	32744	
14	0	32732	
15	0	32700	
16	0	32732	
17	0	32740	
18	0	32748	
19	0	32764	
20	0	32724	
21	0	32812	
22	0	32776	
23	0	32804	
24	0	32772	
25	0	32860	
26	0	32800	
27	0	32853	
28	0	32820	
29	0	32748	
30	0	32764	
31	0	32840	
32	0	32837	
33	0	32756	
34	0	32736	
35	0	32728	
36	0	32724	
37	0	32724	
38	0	32748	
39	0	32764	
40	0	32776	
41	0	32780	
42	0	32796	
43	0	32829	
44	0	32809	
45	0	32794	
46	0	32780	
47	0	32704	
48	0	32768	
49	0	32825	
50	0	32840	
51	0	32773	
52	0	32772	
53	0	32776	
54	0	32765	
55	0	32792	
56	0	32716	
57	0	32687	
58	0	32756	
59	0	32764	
60	0	32840	
61	0	32816	
62	0	32805	
63	0	32828	
64	0	32885	
65	0	32853	
66	0	32768	
67	0	32756	
68	0	32812	
69	0	32808	
70	0	32772	
71	0	32772	
72	0	32790	
73	0	32804	
74	0	32772	
75	0	32776	
76	0	32784	
77	0	32689	
78	0	32736	
79	0	32820	
80	0	32784	
81	0	32766	
82	0	32744	
83	0	32801	
84	0	32768	
85	0	32836	
86	0	32805	
87	0	32792	
88	0	32836	
89	0	32850	
90	0	32816	
91	0	32792	
92	0	32796	
93	0	32768	
94	0	32722	
95	0	32700	
96	0	32698	
97	0	32728	
98	0	32780	
99	0	32776	
100	0	32768	
101	0	32800	
102	0	32828	
103	0	32788	
104	0	32750	
105	0	32774	
106	0	32808	
107	0	32816	
108	0	32812	
109	0	32804	
110	0	32820	
111	0	32880	
112	0	32796	
113	0	32740	
114	0	32748	
115	0	32712	
116	0	32740	
117	0	32712	
118	0	32776	
119	0	32752	
120	0	32824	
121	0	32784	
122	0	32789	
123	0	32812	
124	0	32744	
125	0	32776	
126	0	32800	
127	0	32838	
128	0	32728	
129	0	32880	
130	0	32824	
131	0	32852	
132	0	32828	
133	0	32708	
134	0	32788	
135	0	32729	
136	0	32672	
137	0	32700	
138	0	32744	
139	0	32796	
140	0	32752	
141	0	32853	
142	0	32832	
143	0	32792	
144	0	32806	
145	0	32800	
146	0	32788	
147	0	32830	
148	0	32820	
149	0	32892	
150	0	32752	
151	0	32732	
152	0	32800	
153	0	32736	
154	0	32788	
155	0	32804	
156	0	32713	
157	0	32693	
158	0	32742	
159	0	32760	
160	0	32772	
161	0	32784	
162	0	32792	
163	0	32832	
164	0	32800	
165	0	32792	
166	0	32840	
167	0	32749	
168	0	32772	
169	0	32852	
170	0	32800	
171	0	32788	
172	0	32812	
173	0	32800	
174	0	32708	
175	0	32790	
176	0	32776	
177	0	32716	
178	0	32692	
179	0	32772	
180	0	32832	
181	0	32760	
182	0	32808	
183	0	32869	
184	0	32788	
185	0	32744	
186	0	32808	
187	0	32818	
188	0	32836	
189	0	32776	
190	0	32804	
191	0	32801	
192	0	32784	
193	0	32752	
194	0	32744	
195	0	32732	
196	0	32734	
197	0	32736	
198	0	32768	
199	0	32772	
200	0	32804	
201	0	32764	
202	0	32752	
203	0	32793	
204	0	32788	
205	0	32780	
206	0	32856	
207	0	32772	
208	0	32792	
209	0	32772	
210	0	32780	
211	0	32760	
212	0	32812	
213	0	32776	
214	0	32736	
215	0	32704	
216	0	32736	
217	0	32776	
218	0	32775	
219	0	32756	
220	0	32748	
221	0	32808	
222	0	32820	
223	0	32712	
224	0	32824	
225	0	32792	
226	0	32780	
227	0	32836	
228	0	32844	
229	0	32852	
230	0	32804	
231	0	32806	
232	0	32832	
233	0	32772	
234	0	32756	
235	0	32736	
236	0	32705	
237	0	32712	
238	0	32740	
239	0	32716	
240	0	32816	
241	0	32724	
242	0	32804	
243	0	32824	
244	0	32820	
245	0	32824	
246	0	32820	
247	0	32812	
248	0	32824	
249	0	32792	
250	0	32816	
251	0	32804	
252	0	32724	
253	0	32788	
254	0	32762	
255	0	32764	
256	0	32756	
257	0	32736	
258	0	32732	
259	0	32828	
260	0	32756	
261	0	32804	
262	0	32784	
263	0	32796	
264	0	32805	
265	0	32736	
266	0	32812	
267	0	32864	
268	0	32832	
269	0	32768	
270	0	32840	
271	0	32780	
272	0	32781	
273	0	32740	
274	0	32792	
275	0	32800	
276	0	32724	
277	0	32697	
278	0	32716	
279	0	32748	
280	0	32776	
281	0	32852	
282	0	32836	
283	0	32804	
284	0	32828	
285	0	32728	
286	0	32778	
287	0	32808	
288	0	32780	
289	0	32788	
290	0	32812	
291	0	32824	
292	0	32828	
293	0	32780	
294	0	32772	
295	0	32728	
296	0	32744	
297	0	32790	
298	0	32700	
299	0	32676	
300	0	32808	
301	0	32752	
302	0	32828	
303	0	32816	
304	0	32812	
305	0	32812	
306	0	32820	
307	0	32760	
308	0	32736	
309	0	32876	
310	0	32860	
311	0	32784	
312	0	32784	
313	0	32761	
314	0	32724	
315	0	32748	
316	0	32748	
317	0	32728	
318	0	32744	
319	0	32788	
320	0	32728	
321	0	32768	
322	0	32868	
323	0	32756	
324	0	32864	
325	0	32812	
326	0	32792	
327	0	32768	
328	0	32800	
329	0	32804	
330	0	32836	
331	0	32800	
332	0	32796	
333	0	32768	
334	0	32764	
335	0	32740	
336	0	32732	
337	0	32692	
338	0	32748	
339	0	32760	
340	0	32704	
341	0	32824	
342	0	32768	
343	0	32808	
344	0	32788	
345	0	32772	
346	0	32796	
347	0	32772	
348	0	32836	
349	0	32772	
350	0	32796	
351	0	32804	
352	0	32784	
353	0	32728	
354	0	32724	
355	0	32756	
356	0	32744	
357	0	32772	
358	0	32732	
359	0	32768	
360	0	32792	
361	0	32772	
362	0	32800	
363	0	32812	
364	0	32844	
365	0	32777	
366	0	32820	
367	0	32772	
368	0	32824	
369	0	32792	
370	0	32829	
371	0	32812	
372	0	32780	
373	0	32716	
374	0	32804	
375	0	32748	
376	0	32792	
377	0	32704	
378	0	32744	
379	0	32740	
380	0	32820	
381	0	32732	
382	0	32776	
383	0	32840	
384	0	32876	
385	0	32836	
386	0	32796	
387	0	32808	
388	0	32780	
389	0	32800	
390	0	32840	
391	0	32812	
392	0	32776	
393	0	32784	
394	0	32764	
395	0	32729	
396	0	32740	
397	0	32676	
398	0	32748	
399	0	32744	
400	0	32728	
401	0	32732	
402	0	32752	
403	0	32776	
404	0	32708	
405	0	32736	
406	0	32708	
407	0	32752	
408	0	32804	
409	0	32744	
410	0	32880	
411	0	32848	
412	0	32740	
413	0	32808	
414	0	32744	
415	0	32780	
416	0	32780	
417	0	32844	
418	0	32832	
419	0	32800	
420	0	32816	
421	0	32844	
422	0	32784	
423	0	32832	
424	0	32868	
425	0	32848	
426	0	32860	
427	0	32772	
428	0	32836	
429	0	32832	
430	0	32872	
431	0	32812	
432	0	32792	
433	0	32741	
434	0	32736	
435	0	32752	
436	0	32744	
437	0	32694	
438	0	32760	
439	0	32764	
440	0	32750	
441	0	32737	
442	0	32796	
443	0	32804	
444	0	32799	
445	0	32708	
446	0	32778	
447	0	32832	
448	0	32832	
449	0	32792	
450	0	32792	
451	0	32848	
452	0	32776	
453	0	32704	
454	0	32752	
455	0	32761	
456	0	32744	
457	0	32769	
458	0	32704	
459	0	32772	
460	0	32745	
461	0	32772	
462	0	32832	
463	0	32824	
464	0	32804	
465	0	32872	
466	0	32796	
467	0	32804	
468	0	32796	
469	0	32876	
470	0	32897	
471	0	32796	
472	0	32780	
473	0	32752	
474	0	32756	
475	0	32756	
476	0	32752	
477	0	32760	
478	0	32732	
479	0	32717	
480	0	32764	
481	0	32790	
482	0	32764	
483	0	32824	
484	0	32730	
485	0	32796	
486	0	32808	
487	0	32814	
488	0	32769	
489	0	32840	
490	0	32796	
491	0	32824	
492	0	32772	
493	0	32768	
494	0	32804	
495	0	32780	
496	0	32748	
497	0	32748	
498	0	32744	
499	0	32676	
500	0	32800	
501	0	32716	
502	0	32800	
503	0	32810	
504	0	32812	
505	0	32812	
506	0	32832	
507	0	32788	
508	0	32784	
509	0	32832	
510	0	32894	
511	0	32804	
512	0	32774	
513	0	32856	
514	0	32752	
515	0	32740	
516	0	32716	
517	0	32709	
518	0	32740	
519	0	32764	
520	0	32780	
521	0	32800	
522	0	32828	
523	0	32758	
524	0	32784	
525	0	32808	
526	0	32776	
527	0	32740	
528	0	32856	
529	0	32796	
530	0	32829	
531	0	32764	
532	0	32760	
533	0	32804	
534	0	32680	
535	0	32799	
536	0	32744	
537	0	32688	
538	0	32740	
539	0	32732	
540	0	32784	
541	0	32808	
542	0	32808	
543	0	32816	
544	0	32770	
545	0	32832	
546	0	32800	
547	0	32845	
548	0	32789	
549	0	32828	
550	0	32812	
551	0	32816	
552	0	32768	
553	0	32796	
554	0	32788	
555	0	32796	
556	0	32711	
557	0	32749	
558	0	32632	
559	0	32736	
560	0	32788	
561	0	32777	
562	0	32824	
563	0	32816	
564	0	32793	
565	0	32832	
566	0	32815	
567	0	32844	
568	0	32824	
569	0	32830	
570	0	32880	
571	0	32809	
572	0	32732	
573	0	32756	
574	0	32728	
575	0	32716	
576	0	32664	
577	0	32748	
578	0	32712	
579	0	32756	
580	0	32797	
581	0	32720	
582	0	32840	
583	0	32832	
584	0	32804	
585	0	32832	
586	0	32816	
587	0	32760	
588	0	32806	
589	0	32848	
590	0	32840	
591	0	32828	
592	0	32757	
593	0	32768	
594	0	32788	
595	0	32728	
596	0	32680	
597	0	32716	
598	0	32748	
599	0	32712	
600	0	32784	
601	0	32776	
602	0	32800	
603	0	32780	
604	0	32868	
605	0	32824	
606	0	32812	
607	0	32852	
608	0	32736	
609	0	32784	
610	0	32804	
611	0	32832	
612	0	32808	
613	0	32760	
614	0	32748	
615	0	32688	
616	0	32734	
617	0	32680	
618	0	32732	
619	0	32776	
620	0	32760	
621	0	32816	
622	0	32784	
623	0	32768	
624	0	32792	
625	0	32776	
626	0	32812	
627	0	32768	
628	0	32802	
629	0	32800	
630	0	32848	
631	0	32784	
632	0	32818	
633	0	32700	
634	0	32740	
635	0	32728	
636	0	32740	
637	0	32744	
638	0	32692	
639	0	32766	
640	0	32816	
641	0	32740	
642	0	32860	
643	0	32832	
644	0	32812	
645	0	32820	
646	0	32804	
647	0	32844	
648	0	32812	
649	0	32800	
650	0	32864	
651	0	32788	
652	0	32748	
653	0	32748	
654	0	32744	
655	0	32813	
656	0	32680	
657	0	32788	
658	0	32756	
659	0	32761	
660	0	32798	
661	0	32744	
662	0	32816	
663	0	32800	
664	0	32799	
665	0	32782	
666	0	32812	
667	0	32800	
668	0	32764	
669	0	32760	
670	0	32830	
671	0	32848	
672	0	32724	
673	0	32804	
674	0	32756	
675	0	32804	
676	0	32776	
677	0	32812	
678	0	32752	
679	0	32736	
680	0	32732	
681	0	32816	
682	0	32796	
683	0	32860	
684	0	32713	
685	0	32800	
686	0	32756	
687	0	32748	
688	0	32836	
689	0	32788	
690	0	32852	
691	0	32776	
692	0	32808	
693	0	32712	
694	0	32772	
695	0	32724	
696	0	32716	
697	0	32724	
698	0	32788	
699	0	32780	
700	0	32788	
701	0	32760	
702	0	32784	
703	0	32800	
704	0	32804	
705	0	32812	
706	0	32829	
707	0	32772	
708	0	32816	
709	0	32799	
710	0	32832	
711	0	32796	
712	0	32784	
713	0	32766	
714	0	32740	
715	0	32696	
716	0	32748	
717	0	32716	
718	0	32756	
719	0	32774	
720	0	32760	
721	0	32822	
722	0	32796	
723	0	32816	
724	0	32785	
725	0	32776	
726	0	32796	
727	0	32844	
728	0	32804	
729	0	32836	
730	0	32860	
731	0	32793	
732	0	32774	
733	0	32768	
734	0	32804	
735	0	32776	
736	0	32780	
737	0	32712	
738	0	32744	
739	0	32713	
740	0	32740	
741	0	32760	
742	0	32806	
743	0	32792	
744	0	32836	
745	0	32832	
746	0	32812	
747	0	32840	
748	0	32828	
749	0	32828	
750	0	32805	
751	0	32820	
752	0	32834	
753	0	32792	
754	0	32775	
755	0	32726	
756	0	32740	
757	0	32788	
758	0	32752	
759	0	32788	
760	0	32776	
761	0	32748	
762	0	32736	
763	0	32804	
764	0	32812	
765	0	32792	
766	0	32832	
767	0	32780	
768	0	32736	
769	0	32751	
770	0	32880	
771	0	32821	
772	0	32740	
773	0	32761	
774	0	32764	
775	0	32724	
776	0	32676	
777	0	32696	
778	0	32788	
779	0	32841	
780	0	32740	
781	0	32772	
782	0	32848	
783	0	32800	
784	0	32812	
785	0	32860	
786	0	32840	
787	0	32812	
788	0	32760	
789	0	32812	
790	0	32793	
791	0	32808	
792	0	32748	
793	0	32812	
794	0	32668	
795	0	32760	
796	0	32716	
797	0	32712	
798	0	32728	
799	0	32768	
800	0	32732	
801	0	32760	
802	0	32752	
803	0	32805	
804	0	32812	
805	0	32860	
806	0	32760	
807	0	32840	
808	0	32804	
809	0	32784	
810	0	32848	
811	0	32804	
812	0	32728	
813	0	32804	
814	0	32736	
815	0	32788	
816	0	32760	
817	0	32765	
818	0	32780	
819	0	32756	
820	0	32744	
821	0	32804	
822	0	32836	
823	0	32838	
824	0	32824	
825	0	32784	
826	0	32788	
827	0	32788	
828	0	32820	
829	0	32792	
830	0	32786	
831	0	32740	
832	0	32777	
833	0	32798	
834	0	32745	
835	0	32812	
836	0	32740	
837	0	32772	
838	0	32732	
839	0	32732	
840	0	32736	
841	0	32793	
842	0	32816	
843	0	32864	
844	0	32804	
845	0	32764	
846	0	32736	
847	0	32797	
848	0	32780	
849	0	32820	
850	0	32828	
851	0	32764	
852	0	32813	
853	0	32736	
854	0	32729	
855	0	32718	
856	0	32732	
857	0	32736	
858	0	32760	
859	0	32752	
860	0	32820	
861	0	32744	
862	0	32776	
863	0	32800	
864	0	32784	
865	0	32836	
866	0	32864	
867	0	32792	
868	0	32772	
869	0	32792	
870	0	32888	
871	0	32824	
872	0	32768	
873	0	32748	
874	0	32796	
875	0	32808	
876	0	32696	
877	0	32740	
878	0	32780	
879	0	32740	
880	0	32784	
881	0	32780	
882	0	32860	
883	0	32788	
884	0	32804	
885	0	32836	
886	0	32800	
887	0	32772	
888	0	32756	
889	0	32836	
890	0	32804	
891	0	32813	
892	0	32804	
893	0	32820	
894	0	32712	
895	0	32752	
896	0	32676	
897	0	32748	
898	0	32816	
899	0	32756	
900	0	32792	
901	0	32756	
902	0	32749	
903	0	32808	
904	0	32840	
905	0	32824	
906	0	32856	
907	0	32840	
908	0	32758	
909	0	32808	
910	0	32800	
911	0	32830	
912	0	32780	
913	0	32748	
914	0	32724	
915	0	32796	
916	0	32704	
917	0	32720	
918	0	32752	
919	0	32756	
920	0	32796	
921	0	32788	
922	0	32860	
923	0	32804	
924	0	32896	
925	0	32861	
926	0	32800	
927	0	32788	
928	0	32797	
929	0	32740	
930	0	32772	
931	0	32904	
932	0	32744	
933	0	32828	
934	0	32728	
935	0	32736	
936	0	32736	
937	0	32816	
938	0	32700	
939	0	32708	
940	0	32816	
941	0	32772	
942	0	32736	
943	0	32852	
944	0	32844	
945	0	32838	
946	0	32764	
947	0	32792	
948	0	32844	
949	0	32820	
950	0	32860	
951	0	32840	
952	0	32740	
953	0	32700	
954	0	32732	
955	0	32788	
956	0	32696	
957	0	32740	
958	0	32748	
959	0	32780	
960	0	32736	
961	0	32809	
962	0	32784	
963	0	32796	
964	0	32832	
965	0	32812	
966	0	32832	
967	0	32792	
968	0	32806	
969	0	32808	
970	0	32856	
971	0	32772	
972	0	32748	
973	0	32812	
974	0	32752	
975	0	32768	
976	0	32760	
977	0	32766	
978	0	32740	
979	0	32712	
980	0	32816	
981	0	32792	
982	0	32784	
983	0	32775	
984	0	32758	
985	0	32788	
986	0	32755	
987	0	32800	
988	0	32744	
989	0	32785	
990	0	32872	
991	0	32788	
992	0	32852	
993	0	32798	
994	0	32752	
995	0	32716	
996	0	32776	
997	0	32748	
998	0	32796	
999	0	32821	
1000	0	32764	
1001	0	32696	
1002	0	32804	
1003	0	32800	
1004	0	32852	
1005	0	32804	
1006	0	32836	
1007	0	32864	
1008	0	32788	
1009	0	32828	
1010	0	32860	
1011	0	32848	
1012	0	32764	
1013	0	32824	
1014	0	32760	
1015	0	32764	
1016	0	32632	
1017	0	32661	
1018	0	32720	
1019	0	32800	
1020	0	32784	
1021	0	32696	
1022	0	32828	
1023	0	32788	
1024	0	32720	
1025	0	32793	
1026	0	32816	
1027	0	32768	
1028	0	32736	
1029	0	32740	
1030	0	32698	
1031	0	32780	
1032	0	32745	
1033	0	32681	
1034	0	32744	
1035	0	32712	
1036	0	32652	
1037	0	32756	
1038	0	32712	
1039	0	32781	
1040	0	32768	
1041	0	32848	
1042	0	32764	
1043	0	32872	
1044	0	32888	
1045	0	32884	
1046	0	32893	
1047	0	32836	
1048	0	32788	
1049	0	32900	
1050	0	32892	
1051	0	32782	
1052	0	32892	
1053	0	32824	
1054	0	32772	
1055	0	32788	
1056	0	32724	
1057	0	32716	
1058	0	32768	
1059	0	32688	
1060	0	32740	
1061	0	32732	
1062	0	32792	
1063	0	32816	
1064	0	32776	
1065	0	32820	
1066	0	32831	
1067	0	32748	
1068	0	32744	
1069	0	32840	
1070	0	32856	
1071	0	32840	
1072	0	32780	
1073	0	32692	
1074	0	32692	
1075	0	32748	
1076	0	32732	
1077	0	32748	
1078	0	32736	
1079	0	32700	
1080	0	32792	
1081	0	32732	
1082	0	32804	
1083	0	32780	
1084	0	32852	
1085	0	32804	
1086	0	32816	
1087	0	32772	
1088	0	32796	
1089	0	32832	
1090	0	32800	
1091	0	32764	
1092	0	32756	
1093	0	32736	
1094	0	32732	
1095	0	32752	
1096	0	32782	
1097	0	32728	
1098	0	32768	
1099	0	32796	
1100	0	32754	
1101	0	32812	
1102	0	32788	
1103	0	32830	
1104	0	32792	
1105	0	32780	
1106	0	32816	
1107	0	32764	
1108	0	32762	
1109	0	32812	
1110	0	32840	
1111	0	32820	
1112	0	32772	
1113	0	32720	
1114	0	32736	
1115	0	32788	
1116	0	32752	
1117	0	32748	
1118	0	32700	
1119	0	32748	
1120	0	32736	
1121	0	32776	
1122	0	32812	
1123	0	32749	
1124	0	32800	
1125	0	32808	
1126	0	32812	
1127	0	32812	
1128	0	32800	
1129	0	32820	
1130	0	32840	
1131	0	32798	
1132	0	32780	
1133	0	32740	
1134	0	32736	
1135	0	32712	
1136	0	32756	
1137	0	32720	
1138	0	32726	
1139	0	32724	
1140	0	32796	
1141	0	32756	
1142	0	32788	
1143	0	32832	
1144	0	32756	
1145	0	32816	
1146	0	32788	
1147	0	32800	
1148	0	32784	
1149	0	32852	
1150	0	32833	
1151	0	32792	
1152	0	32812	
1153	0	32734	
1154	0	32740	
1155	0	32784	
1156	0	32748	
1157	0	32732	
1158	0	32748	
1159	0	32772	
1160	0	32768	
1161	0	32788	
1162	0	32812	
1163	0	32804	
1164	0	32792	
1165	0	32824	
1166	0	32784	
1167	0	32716	
1168	0	32801	
1169	0	32786	
1170	0	32840	
1171	0	32737	
1172	0	32820	
1173	0	32744	
1174	0	32760	
1175	0	32772	
1176	0	32724	
1177	0	32802	
1178	0	32724	
1179	0	32749	
1180	0	32868	
1181	0	32812	
1182	0	32752	
1183	0	32812	
1184	0	32785	
1185	0	32756	
1186	0	32768	
1187	0	32836	
1188	0	32804	
1189	0	32764	
1190	0	32788	
1191	0	32744	
1192	0	32810	
1193	0	32736	
1194	0	32752	
1195	0	32780	
1196	0	32776	
1197	0	32722	
1198	0	32748	
1199	0	32783	
1200	0	32768	
1201	0	32784	
1202	0	32748	
1203	0	32768	
1204	0	32876	
1205	0	32816	
1206	0	32812	
1207	0	32792	
1208	0	32832	
1209	0	32889	
1210	0	32760	
1211	0	32804	
1212	0	32748	
1213	0	32758	
1214	0	32792	
1215	0	32780	
1216	0	32693	
1217	0	32716	
1218	0	32704	
1219	0	32714	
1220	0	32828	
1221	0	32772	
1222	0	32772	
1223	0	32812	
1224	0	32761	
1225	0	32848	
1226	0	32812	
1227	0	32804	
1228	0	32752	
1229	0	32846	
1230	0	32864	
1231	0	32780	
1232	0	32814	
1233	0	32718	
1234	0	32790	
1235	0	32800	
1236	0	32805	
1237	0	32692	
1238	0	32796	
1239	0	32796	
1240	0	32772	
1241	0	32760	
1242	0	32848	
1243	0	32788	
1244	0	32748	
1245	0	32785	
1246	0	32837	
1247	0	32838	
1248	0	32784	
1249	0	32744	
1250	0	32797	
1251	0	32828	
1252	0	32776	
1253	0	32762	
1254	0	32788	
1255	0	32736	
1256	0	32736	
1257	0	32742	
1258	0	32744	
1259	0	32798	
1260	0	32764	
1261	0	32776	
1262	0	32792	
1263	0	32752	
1264	0	32852	
1265	0	32764	
1266	0	32836	
1267	0	32768	
1268	0	32792	
1269	0	32760	
1270	0	32825	
1271	0	32848	
1272	0	32816	
1273	0	32780	
1274	0	32712	
1275	0	32769	
1276	0	32684	
1277	0	32804	
1278	0	32756	
1279	0	32720	
1280	0	32784	
1281	0	32788	
1282	0	32780	
1283	0	32813	
1284	0	32836	
1285	0	32876	
1286	0	32786	
1287	0	32770	
1288	0	32788	
1289	0	32820	
1290	0	32784	
1291	0	32800	
1292	0	32740	
1293	0	32760	
1294	0	32784	
1295	0	32784	
1296	0	32744	
1297	0	32700	
1298	0	32717	
1299	0	32728	
1300	0	32728	
1301	0	32789	
1302	0	32821	
1303	0	32808	
1304	0	32768	
1305	0	32764	
1306	0	32828	
1307	0	32828	
1308	0	32844	
1309	0	32760	
1310	0	32776	
1311	0	32724	
1312	0	32788	
1313	0	32792	
1314	0	32800	
1315	0	32732	
1316	0	32740	
1317	0	32756	
1318	0	32708	
1319	0	32760	
1320	0	32744	
1321	0	32792	
1322	0	32810	
1323	0	32780	
1324	0	32792	
1325	0	32812	
1326	0	32808	
1327	0	32784	
1328	0	32788	
1329	0	32784	
1330	0	32788	
1331	0	32829	
1332	0	32796	
1333	0	32772	
1334	0	32744	
1335	0	32685	
1336	0	32685	
1337	0	32760	
1338	0	32832	
1339	0	32808	
1340	0	32820	
1341	0	32786	
1342	0	32820	
1343	0	32796	
1344	0	32860	
1345	0	32786	
1346	0	32820	
1347	0	32864	
1348	0	32760	
1349	0	32792	
1350	0	32820	
1351	0	32804	
1352	0	32781	
1353	0	32800	
1354	0	32770	
1355	0	32680	
1356	0	32692	
1357	0	32736	
1358	0	32732	
1359	0	32729	
1360	0	32852	
1361	0	32768	
1362	0	32792	
1363	0	32776	
1364	0	32796	
1365	0	32775	
1366	0	32832	
1367	0	32844	
1368	0	32780	
1369	0	32736	
1370	0	32816	
1371	0	32792	
1372	0	32774	
1373	0	32800	
1374	0	32776	
1375	0	32704	
1376	0	32752	
1377	0	32804	
1378	0	32704	
1379	0	32776	
1380	0	32800	
1381	0	32833	
1382	0	32775	
1383	0	32828	
1384	0	32804	
1385	0	32732	
1386	0	32820	
1387	0	32832	
1388	0	32792	
1389	0	32832	
1390	0	32812	
1391	0	32844	
1392	0	32856	
1393	0	32736	
1394	0	32704	
1395	0	32769	
1396	0	32692	
1397	0	32672	
1398	0	32740	
1399	0	32756	
1400	0	32836	
1401	0	32798	
1402	0	32776	
1403	0	32776	
1404	0	32732	
1405	0	32772	
1406	0	32844	
1407	0	32864	
1408	0	32788	
1409	0	32733	
1410	0	32828	
1411	0	32860	
1412	0	32802	
1413	0	32736	
1414	0	32688	
1415	0	32748	
1416	0	32708	
1417	0	32776	
1418	0	32688	
1419	0	32796	
1420	0	32737	
1421	0	32760	
1422	0	32744	
1423	0	32784	
1424	0	32765	
1425	0	32852	
1426	0	32772	
1427	0	32842	
1428	0	32832	
1429	0	32804	
1430	0	32864	
1431	0	32829	
1432	0	32828	
1433	0	32736	
1434	0	32736	
1435	0	32756	
1436	0	32784	
1437	0	32761	
1438	0	32740	
1439	0	32720	
1440	0	32772	
1441	0	32768	
1442	0	32776	
1443	0	32804	
1444	0	32812	
1445	0	32820	
1446	0	32732	
1447	0	32804	
1448	0	32844	
1449	0	32815	
1450	0	32828	
1451	0	32768	
1452	0	32728	
1453	0	32770	
1454	0	32708	
1455	0	32732	
1456	0	32704	
1457	0	32676	
1458	0	32761	
1459	0	32748	
1460	0	32808	
1461	0	32768	
1462	0	32748	
1463	0	32808	
1464	0	32798	
1465	0	32832	
1466	0	32810	
1467	0	32828	
1468	0	32812	
1469	0	32812	
1470	0	32804	
1471	0	32860	
1472	0	32804	
1473	0	32728	
1474	0	32756	
1475	0	32812	
1476	0	32748	
1477	0	32737	
1478	0	32736	
1479	0	32724	
1480	0	32736	
1481	0	32829	
1482	0	32752	
1483	0	32798	
1484	0	32808	
1485	0	32796	
1486	0	32804	
1487	0	32814	
1488	0	32768	
1489	0	32796	
1490	0	32854	
1491	0	32821	
1492	0	32844	
1493	0	32748	
1494	0	32792	
1495	0	32760	
1496	0	32756	
1497	0	32736	
1498	0	32676	
1499	0	32780	
1500	0	32732	
1501	0	32772	
1502	0	32758	
1503	0	32796	
1504	0	32768	
1505	0	32804	
1506	0	32812	
1507	0	32708	
1508	0	32832	
1509	0	32832	
1510	0	32856	
1511	0	32832	
1512	0	32793	
1513	0	32816	
1514	0	32773	
1515	0	32776	
1516	0	32676	
1517	0	32696	
1518	0	32712	
1519	0	32796	
1520	0	32756	
1521	0	32784	
1522	0	32824	
1523	0	32844	
1524	0	32772	
1525	0	32804	
1526	0	32828	
1527	0	32832	
1528	0	32832	
1529	0	32768	
1530	0	32868	
1531	0	32780	
1532	0	32764	
1533	0	32780	
1534	0	32772	
1535	0	32744	
1536	0	32724	
1537	0	32672	
1538	0	32732	
1539	0	32824	
1540	0	32780	
1541	0	32800	
1542	0	32804	
1543	0	32780	
1544	0	32848	
1545	0	32804	
1546	0	32812	
1547	0	32804	
1548	0	32816	
1549	0	32900	
1550	0	32788	
1551	0	32824	
1552	0	32776	
1553	0	32760	
1554	0	32784	
1555	0	32792	
1556	0	32740	
1557	0	32724	
1558	0	32732	
1559	0	32740	
1560	0	32780	
1561	0	32812	
1562	0	32822	
1563	0	32820	
1564	0	32781	
1565	0	32817	
1566	0	32772	
1567	0	32812	
1568	0	32832	
1569	0	32816	
1570	0	32802	
1571	0	32848	
1572	0	32768	
1573	0	32728	
1574	0	32768	
1575	0	32776	
1576	0	32644	
1577	0	32724	
1578	0	32728	
1579	0	32744	
1580	0	32750	
1581	0	32852	
1582	0	32800	
1583	0	32816	
1584	0	32776	
1585	0	32784	
1586	0	32824	
1587	0	32820	
1588	0	32789	
1589	0	32812	
1590	0	32780	
1591	0	32816	
1592	0	32772	
1593	0	32756	
1594	0	32740	
1595	0	32768	
1596	0	32745	
1597	0	32768	
1598	0	32685	
1599	0	32756	
1600	0	32784	
1601	0	32716	
1602	0	32808	
1603	0	32772	
1604	0	32824	
1605	0	32736	
1606	0	32810	
1607	0	32784	
1608	0	32801	
1609	0	32776	
1610	0	32772	
1611	0	32792	
1612	0	32840	
1613	0	32776	
1614	0	32784	
1615	0	32778	
1616	0	32760	
1617	0	32773	
1618	0	32744	
1619	0	32736	
1620	0	32812	
1621	0	32804	
1622	0	32776	
1623	0	32772	
1624	0	32820	
1625	0	32792	
1626	0	32792	
1627	0	32832	
1628	0	32832	
1629	0	32746	
1630	0	32804	
1631	0	32812	
1632	0	32804	
1633	0	32668	
1634	0	32773	
1635	0	32804	
1636	0	32714	
1637	0	32712	
1638	0	32700	
1639	0	32696	
1640	0	32752	
1641	0	32784	
1642	0	32764	
1643	0	32748	
1644	0	32776	
1645	0	32768	
1646	0	32758	
1647	0	32756	
1648	0	32733	
1649	0	32709	
1650	0	32809	
1651	0	32808	
1652	0	32780	
1653	0	32756	
1654	0	32732	
1655	0	32700	
1656	0	32728	
1657	0	32724	
1658	0	32780	
1659	0	32744	
1660	0	32772	
1661	0	32770	
1662	0	32784	
1663	0	32772	
1664	0	32864	
1665	0	32892	
1666	0	32849	
1667	0	32849	
1668	0	32884	
1669	0	32860	
1670	0	32829	
1671	0	32852	
1672	0	32868	
1673	0	32816	
1674	0	32764	
1675	0	32756	
1676	0	32696	
1677	0	32696	
1678	0	32716	
1679	0	32844	
1680	0	32860	
1681	0	32828	
1682	0	32860	
1683	0	32828	
1684	0	32808	
1685	0	32732	
1686	0	32789	
1687	0	32816	
1688	0	32782	
1689	0	32777	
1690	0	32792	
1691	0	32816	
1692	0	32752	
1693	0	32748	
1694	0	32724	
1695	0	32769	
1696	0	32692	
1697	0	32673	
1698	0	32700	
1699	0	32728	
1700	0	32764	
1701	0	32716	
1702	0	32808	
1703	0	32840	
1704	0	32780	
1705	0	32812	
1706	0	32792	
1707	0	32840	
1708	0	32790	
1709	0	32842	
1710	0	32884	
1711	0	32836	
1712	0	32772	
1713	0	32748	
1714	0	32724	
1715	0	32756	
1716	0	32716	
1717	0	32668	
1718	0	32764	
1719	0	32788	
1720	0	32788	
1721	0	32780	
1722	0	32804	
1723	0	32852	
1724	0	32812	
1725	0	32800	
1726	0	32808	
1727	0	32772	
1728	0	32788	
1729	0	32726	
1730	0	32868	
1731	0	32808	
1732	0	32764	
1733	0	32748	
1734	0	32732	
1735	0	32784	
1736	0	32756	
1737	0	32692	
1738	0	32796	
1739	0	32792	
1740	0	32724	
1741	0	32788	
1742	0	32772	
1743	0	32812	
1744	0	32748	
1745	0	32832	
1746	0	32788	
1747	0	32784	
1748	0	32788	
1749	0	32846	
1750	0	32804	
1751	0	32808	
1752	0	32760	
1753	0	32726	
1754	0	32752	
1755	0	32772	
1756	0	32772	
1757	0	32772	
1758	0	32728	
1759	0	32776	
1760	0	32761	
1761	0	32832	
1762	0	32800	
1763	0	32784	
1764	0	32824	
1765	0	32808	
1766	0	32761	
1767	0	32780	
1768	0	32740	
1769	0	32800	
1770	0	32785	
1771	0	32784	
1772	0	32792	
1773	0	32796	
1774	0	32696	
1775	0	32788	
1776	0	32788	
1777	0	32742	
1778	0	32720	
1779	0	32736	
1780	0	32778	
1781	0	32832	
1782	0	32812	
1783	0	32764	
1784	0	32748	
1785	0	32796	
1786	0	32844	
1787	0	32784	
1788	0	32844	
1789	0	32796	
1790	0	32812	
1791	0	32836	
1792	0	32788	
1793	0	32756	
1794	0	32772	
1795	0	32756	
1796	0	32745	
1797	0	32732	
1798	0	32720	
1799	0	32724	
1800	0	32708	
1801	0	32852	
1802	0	32848	
1803	0	32832	
1804	0	32796	
1805	0	32816	
1806	0	32784	
1807	0	32788	
1808	0	32796	
1809	0	32821	
1810	0	32852	
1811	0	32808	
1812	0	32804	
1813	0	32753	
1814	0	32748	
1815	0	32712	
1816	0	32792	
1817	0	32756	
1818	0	32708	
1819	0	32764	
1820	0	32772	
1821	0	32741	
1822	0	32844	
1823	0	32804	
1824	0	32792	
1825	0	32724	
1826	0	32836	
1827	0	32812	
1828	0	32842	
1829	0	32834	
1830	0	32816	
1831	0	32824	
1832	0	32764	
1833	0	32772	
1834	0	32772	
1835	0	32737	
1836	0	32676	
1837	0	32680	
1838	0	32704	
1839	0	32732	
1840	0	32760	
1841	0	32796	
1842	0	32780	
1843	0	32786	
1844	0	32832	
1845	0	32810	
1846	0	32758	
1847	0	32776	
1848	0	32797	
1849	0	32828	
1850	0	32837	
1851	0	32844	
1852	0	32788	
1853	0	32774	
1854	0	32744	
1855	0	32756	
1856	0	32681	
1857	0	32792	
1858	0	32764	
1859	0	32729	
1860	0	32821	
1861	0	32784	
1862	0	32848	
1863	0	32808	
1864	0	32876	
1865	0	32769	
1866	0	32796	
1867	0	32752	
1868	0	32833	
1869	0	32832	
1870	0	32793	
1871	0	32822	
1872	0	32804	
1873	0	32740	
1874	0	32764	
1875	0	32760	
1876	0	32704	
1877	0	32772	
1878	0	32802	
1879	0	32744	
1880	0	32772	
1881	0	32764	
1882	0	32780	
1883	0	32828	
1884	0	32824	
1885	0	32820	
1886	0	32764	
1887	0	32788	
1888	0	32804	
1889	0	32852	
1890	0	32872	
1891	0	32778	
1892	0	32828	
1893	0	32776	
1894	0	32736	
1895	0	32722	
1896	0	32710	
1897	0	32788	
1898	0	32804	
1899	0	32788	
1900	0	32800	
1901	0	32800	
1902	0	32778	
1903	0	32828	
1904	0	32748	
1905	0	32740	
1906	0	32832	
1907	0	32816	
1908	0	32752	
1909	0	32846	
1910	0	32809	
1911	0	32788	
1912	0	32800	
1913	0	32720	
1914	0	32704	
1915	0	32737	
1916	0	32704	
1917	0	32724	
1918	0	32768	
1919	0	32752	
1920	0	32760	
1921	0	32724	
1922	0	32796	
1923	0	32756	
1924	0	32816	
1925	0	32800	
1926	0	32813	
1927	0	32800	
1928	0	32774	
1929	0	32776	
1930	0	32812	
1931	0	32821	
1932	0	32804	
1933	0	32744	
1934	0	32748	
1935	0	32728	
1936	0	32704	
1937	0	32752	
1938	0	32848	
1939	0	32816	
1940	0	32834	
1941	0	32804	
1942	0	32804	
1943	0	32760	
1944	0	32772	
1945	0	32774	
1946	0	32756	
1947	0	32812	
1948	0	32768	
1949	0	32768	
1950	0	32780	
1951	0	32825	
1952	0	32832	
1953	0	32764	
1954	0	32712	
1955	0	32756	
1956	0	32732	
1957	0	32776	
1958	0	32708	
1959	0	32816	
1960	0	32776	
1961	0	32748	
1962	0	32809	
1963	0	32740	
1964	0	32792	
1965	0	32788	
1966	0	32852	
1967	0	32844	
1968	0	32797	
1969	0	32766	
1970	0	32780	
1971	0	32808	
1972	0	32828	
1973	0	32677	
1974	0	32800	
1975	0	32760	
1976	0	32716	
1977	0	32668	
1978	0	32740	
1979	0	32768	
1980	0	32810	
1981	0	32732	
1982	0	32708	
1983	0	32780	
1984	0	32792	
1985	0	32888	
1986	0	32796	
1987	0	32852	
1988	0	32860	
1989	0	32860	
1990	0	32844	
1991	0	32788	
1992	0	32774	
1993	0	32773	
1994	0	32716	
1995	0	32696	
1996	0	32748	
1997	0	32732	
1998	0	32788	
1999	0	32702	
2000	0	32784	
2001	0	32748	
2002	0	32812	
2003	0	32800	
2004	0	32813	
2005	0	32804	
2006	0	32790	
2007	0	32756	
2008	0	32760	
2009	0	32784	
2010	0	32796	
2011	0	32800	
2012	0	32808	
2013	0	32764	
2014	0	32820	
2015	0	32740	
2016	0	32692	
2017	0	32704	
2018	0	32720	
2019	0	32732	
2020	0	32720	
2021	0	32704	
2022	0	32804	
2023	0	32758	
2024	0	32768	
2025	0	32820	
2026	0	32848	
2027	0	32848	
2028	0	32816	
2029	0	32817	
2030	0	32821	
2031	0	32821	
2032	0	32820	
2033	0	32781	
2034	0	32740	
2035	0	32772	
2036	0	32673	
2037	0	32750	
2038	0	32768	
2039	0	32772	
2040	0	32780	
2041	0	32792	
2042	0	32752	
2043	0	32767	
2044	0	32752	
2045	0	32812	
2046	0	32822	
2047	0	32816	
2048	0	32800	
2049	0	32822	
2050	0	32820	
2051	0	32820	
2052	0	32848	
2053	0	32740	
2054	0	32706	
2055	0	32732	
2056	0	32740	
2057	0	32752	
2058	0	32776	
2059	0	32804	
2060	0	32828	
2061	0	32757	
2062	0	32768	
2063	0	32800	
2064	0	32824	
2065	0	32760	
2066	0	32764	
2067	0	32780	
2068	0	32820	
2069	0	32792	
2070	0	32822	
2071	0	32852	
2072	0	32740	
2073	0	32744	
2074	0	32798	
2075	0	32756	
2076	0	32672	
2077	0	32781	
2078	0	32744	
2079	0	32796	
2080	0	32743	
2081	0	32782	
2082	0	32740	
2083	0	32854	
2084	0	32792	
2085	0	32856	
2086	0	32820	
2087	0	32820	
2088	0	32788	
2089	0	32788	
2090	0	32804	
2091	0	32744	
2092	0	32768	
2093	0	32736	
2094	0	32748	
2095	0	32748	
2096	0	32768	
2097	0	32726	
2098	0	32713	
2099	0	32740	
2100	0	32788	
2101	0	32770	
2102	0	32798	
2103	0	32804	
2104	0	32744	
2105	0	32780	
2106	0	32840	
2107	0	32801	
2108	0	32800	
2109	0	32780	
2110	0	32888	
2111	0	32844	
2112	0	32736	
2113	0	32732	
2114	0	32772	
2115	0	32780	
2116	0	32772	
2117	0	32704	
2118	0	32712	
2119	0	32746	
2120	0	32824	
2121	0	32790	
2122	0	32756	
2123	0	32764	
2124	0	32860	
2125	0	32760	
2126	0	32756	
2127	0	32840	
2128	0	32840	
2129	0	32822	
2130	0	32844	
2131	0	32808	
2132	0	32790	
2133	0	32768	
2134	0	32741	
2135	0	32768	
2136	0	32740	
2137	0	32680	
2138	0	32782	
2139	0	32768	
2140	0	32758	
2141	0	32712	
2142	0	32832	
2143	0	32800	
2144	0	32772	
2145	0	32793	
2146	0	32756	
2147	0	32766	
2148	0	32812	
2149	0	32825	
2150	0	32820	
2151	0	32860	
2152	0	32844	
2153	0	32805	
2154	0	32700	
2155	0	32712	
2156	0	32708	
2157	0	32744	
2158	0	32736	
2159	0	32792	
2160	0	32756	
2161	0	32796	
2162	0	32772	
2163	0	32790	
2164	0	32760	
2165	0	32812	
2166	0	32836	
2167	0	32860	
2168	0	32776	
2169	0	32800	
2170	0	32856	
2171	0	32832	
2172	0	32772	
2173	0	32736	
2174	0	32705	
2175	0	32712	
2176	0	32696	
2177	0	32704	
2178	0	32772	
2179	0	32788	
2180	0	32856	
2181	0	32756	
2182	0	32776	
2183	0	32816	
2184	0	32816	
2185	0	32770	
2186	0	32820	
2187	0	32844	
2188	0	32788	
2189	0	32817	
2190	0	32820	
2191	0	32829	
2192	0	32724	
2193	0	32696	
2194	0	32720	
2195	0	32740	
2196	0	32732	
2197	0	32750	
2198	0	32716	
2199	0	32816	
2200	0	32820	
2201	0	32809	
2202	0	32764	
2203	0	32738	
2204	0	32812	
2205	0	32780	
2206	0	32844	
2207	0	32824	
2208	0	32776	
2209	0	32836	
2210	0	32828	
2211	0	32852	
2212	0	32716	
2213	0	32761	
2214	0	32718	
2215	0	32724	
2216	0	32720	
2217	0	32708	
2218	0	32760	
2219	0	32784	
2220	0	32776	
2221	0	32788	
2222	0	32820	
2223	0	32788	
2224	0	32804	
2225	0	32824	
2226	0	32852	
2227	0	32796	
2228	0	32792	
2229	0	32816	
2230	0	32797	
2231	0	32776	
2232	0	32804	
2233	0	32808	
2234	0	32776	
2235	0	32844	
2236	0	32717	
2237	0	32734	
2238	0	32753	
2239	0	32814	
2240	0	32740	
2241	0	32704	
2242	0	32828	
2243	0	32802	
2244	0	32788	
2245	0	32732	
2246	0	32757	
2247	0	32805	
2248	0	32768	
2249	0	32756	
2250	0	32740	
2251	0	32700	
2252	0	32732	
2253	0	32692	
2254	0	32688	
2255	0	32704	
2256	0	32652	
2257	0	32700	
2258	0	32793	
2259	0	32674	
2260	0	32712	
2261	0	32784	
2262	0	32828	
2263	0	32868	
2264	0	32836	
2265	0	32812	
2266	0	32824	
2267	0	32884	
2268	0	32904	
2269	0	32876	
2270	0	32909	
2271	0	32856	
2272	0	32792	
2273	0	32712	
2274	0	32744	
2275	0	32800	
2276	0	32732	
2277	0	32776	
2278	0	32760	
2279	0	32816	
2280	0	32837	
2281	0	32816	
2282	0	32820	
2283	0	32812	
2284	0	32797	
2285	0	32744	
2286	0	32753	
2287	0	32812	
2288	0	32812	
2289	0	32816	
2290	0	32766	
2291	0	32814	
2292	0	32824	
2293	0	32744	
2294	0	32766	
2295	0	32690	
2296	0	32704	
2297	0	32756	
2298	0	32686	
2299	0	32792	
2300	0	32784	
2301	0	32760	
2302	0	32808	
2303	0	32812	
2304	0	32784	
2305	0	32764	
2306	0	32745	
2307	0	32808	
2308	0	32736	
2309	0	32816	
2310	0	32744	
2311	0	32833	
2312	0	32813	
2313	0	32744	
2314	0	32724	
2315	0	32740	
2316	0	32812	
2317	0	32752	
2318	0	32757	
2319	0	32770	
2320	0	32796	
2321	0	32756	
2322	0	32792	
2323	0	32829	
2324	0	32824	
2325	0	32794	
2326	0	32753	
2327	0	32742	
2328	0	32758	
2329	0	32760	
2330	0	32828	
2331	0	32836	
2332	0	32760	
2333	0	32816	
2334	0	32776	
2335	0	32740	
2336	0	32684	
2337	0	32648	
2338	0	32804	
2339	0	32775	
2340	0	32808	
2341	0	32770	
2342	0	32801	
2343	0	32853	
2344	0	32796	
2345	0	32788	
2346	0	32792	
2347	0	32752	
2348	0	32785	
2349	0	32758	
2350	0	32792	
2351	0	32836	
2352	0	32750	
2353	0	32752	
2354	0	32732	
2355	0	32728	
2356	0	32740	
2357	0	32716	
2358	0	32782	
2359	0	32864	
2360	0	32724	
2361	0	32800	
2362	0	32798	
2363	0	32789	
2364	0	32808	
2365	0	32860	
2366	0	32760	
2367	0	32788	
2368	0	32842	
2369	0	32764	
2370	0	32784	
2371	0	32764	
2372	0	32732	
2373	0	32780	
2374	0	32752	
2375	0	32752	
2376	0	32792	
2377	0	32756	
2378	0	32768	
2379	0	32768	
2380	0	32801	
2381	0	32768	
2382	0	32828	
2383	0	32808	
2384	0	32864	
2385	0	32744	
2386	0	32800	
2387	0	32753	
2388	0	32812	
2389	0	32773	
2390	0	32820	
2391	0	32820	
2392	0	32800	
2393	0	32733	
2394	0	32844	
2395	0	32768	
2396	0	32716	
2397	0	32720	
2398	0	32760	
2399	0	32784	
2400	0	32764	
2401	0	32768	
2402	0	32772	
2403	0	32738	
2404	0	32776	
2405	0	32823	
2406	0	32778	
2407	0	32804	
2408	0	32764	
2409	0	32872	
2410	0	32832	
2411	0	32844	
2412	0	32828	
2413	0	32736	
2414	0	32736	
2415	0	32704	
2416	0	32748	
2417	0	32740	
2418	0	32716	
2419	0	32741	
2420	0	32736	
2421	0	32768	
2422	0	32752	
2423	0	32828	
2424	0	32820	
2425	0	32816	
2426	0	32808	
2427	0	32740	
2428	0	32816	
2429	0	32832	
2430	0	32840	
2431	0	32840	
2432	0	32792	
2433	0	32728	
2434	0	32676	
2435	0	32732	
2436	0	32804	
2437	0	32700	
2438	0	32780	
2439	0	32764	
2440	0	32753	
2441	0	32732	
2442	0	32784	
2443	0	32768	
2444	0	32832	
2445	0	32824	
2446	0	32776	
2447	0	32837	
2448	0	32760	
2449	0	32780	
2450	0	32824	
2451	0	32808	
2452	0	32708	
2453	0	32740	
2454	0	32776	
2455	0	32764	
2456	0	32701	
2457	0	32760	
2458	0	32736	
2459	0	32784	
2460	0	32750	
2461	0	32820	
2462	0	32808	
2463	0	32764	
2464	0	32836	
2465	0	32820	
2466	0	32840	
2467	0	32821	
2468	0	32750	
2469	0	32821	
2470	0	32756	
2471	0	32841	
2472	0	32852	
2473	0	32804	
2474	0	32768	
2475	0	32720	
2476	0	32752	
2477	0	32708	
2478	0	32753	
2479	0	32808	
2480	0	32784	
2481	0	32752	
2482	0	32740	
2483	0	32776	
2484	0	32778	
2485	0	32809	
2486	0	32856	
2487	0	32788	
2488	0	32812	
2489	0	32812	
2490	0	32840	
2491	0	32820	
2492	0	32766	
2493	0	32720	
2494	0	32732	
2495	0	32724	
2496	0	32732	
2497	0	32672	
2498	0	32750	
2499	0	32741	
2500	0	32804	
2501	0	32792	
2502	0	32776	
2503	0	32812	
2504	0	32772	
2505	0	32776	
2506	0	32865	
2507	0	32760	
2508	0	32820	
2509	0	32784	
2510	0	32813	
2511	0	32868	
2512	0	32816	
2513	0	32708	
2514	0	32712	
2515	0	32748	
2516	0	32744	
2517	0	32688	
2518	0	32772	
2519	0	32746	
2520	0	32780	
2521	0	32829	
2522	0	32804	
2523	0	32832	
2524	0	32832	
2525	0	32816	
2526	0	32772	
2527	0	32808	
2528	0	32762	
2529	0	32796	
2530	0	32836	
2531	0	32784	
2532	0	32756	
2533	0	32732	
2534	0	32724	
2535	0	32740	
2536	0	32740	
2537	0	32712	
2538	0	32728	
2539	0	32713	
2540	0	32775	
2541	0	32764	
2542	0	32804	
2543	0	32800	
2544	0	32828	
2545	0	32844	
2546	0	32776	
2547	0	32808	
2548	0	32760	
2549	0	32800	
2550	0	32836	
2551	0	32796	
2552	0	32806	
2553	0	32724	
2554	0	32748	
2555	0	32748	
2556	0	32752	
2557	0	32728	
2558	0	32796	
2559	0	32781	
2560	0	32752	
2561	0	32776	
2562	0	32788	
2563	0	32788	
2564	0	32776	
2565	0	32784	
2566	0	32836	
2567	0	32824	
2568	0	32768	
2569	0	32788	
2570	0	32804	
2571	0	32834	
2572	0	32768	
2573	0	32772	
2574	0	32733	
2575	0	32748	
2576	0	32712	
2577	0	32724	
2578	0	32740	
2579	0	32760	
2580	0	32692	
2581	0	32848	
2582	0	32848	
2583	0	32856	
2584	0	32844	
2585	0	32816	
2586	0	32784	
2587	0	32777	
2588	0	32832	
2589	0	32864	
2590	0	32836	
2591	0	32780	
2592	0	32732	
2593	0	32712	
2594	0	32724	
2595	0	32712	
2596	0	32768	
2597	0	32728	
2598	0	32732	
2599	0	32772	
2600	0	32792	
2601	0	32804	
2602	0	32796	
2603	0	32774	
2604	0	32821	
2605	0	32785	
2606	0	32800	
2607	0	32820	
2608	0	32740	
2609	0	32792	
2610	0	32788	
2611	0	32836	
2612	0	32796	
2613	0	32764	
2614	0	32772	
2615	0	32785	
2616	0	32764	
2617	0	32740	
2618	0	32733	
2619	0	32804	
2620	0	32808	
2621	0	32802	
2622	0	32772	
2623	0	32796	
2624	0	32676	
2625	0	32816	
2626	0	32816	
2627	0	32796	
2628	0	32812	
2629	0	32790	
2630	0	32813	
2631	0	32872	
2632	0	32776	
2633	0	32744	
2634	0	32774	
2635	0	32744	
2636	0	32756	
2637	0	32752	
2638	0	32720	
2639	0	32780	
2640	0	32744	
2641	0	32776	
2642	0	32748	
2643	0	32832	
2644	0	32756	
2645	0	32814	
2646	0	32804	
2647	0	32828	
2648	0	32778	
2649	0	32832	
2650	0	32788	
2651	0	32824	
2652	0	32776	
2653	0	32768	
2654	0	32732	
2655	0	32793	
2656	0	32760	
2657	0	32673	
2658	0	32726	
2659	0	32789	
2660	0	32772	
2661	0	32780	
2662	0	32780	
2663	0	32782	
2664	0	32824	
2665	0	32808	
2666	0	32748	
2667	0	32784	
2668	0	32742	
2669	0	32784	
2670	0	32841	
2671	0	32728	
2672	0	32800	
2673	0	32780	
2674	0	32774	
2675	0	32736	
2676	0	32712	
2677	0	32716	
2678	0	32732	
2679	0	32784	
2680	0	32780	
2681	0	32761	
2682	0	32837	
2683	0	32780	
2684	0	32804	
2685	0	32804	
2686	0	32756	
2687	0	32834	
2688	0	32808	
2689	0	32812	
2690	0	32816	
2691	0	32836	
2692	0	32760	
2693	0	32732	
2694	0	32756	
2695	0	32720	
2696	0	32676	
2697	0	32724	
2698	0	32768	
2699	0	32754	
2700	0	32804	
2701	0	32757	
2702	0	32788	
2703	0	32740	
2704	0	32784	
2705	0	32812	
2706	0	32772	
2707	0	32800	
2708	0	32852	
2709	0	32804	
2710	0	32772	
2711	0	32816	
2712	0	32769	
2713	0	32804	
2714	0	32736	
2715	0	32748	
2716	0	32770	
2717	0	32686	
2718	0	32788	
2719	0	32750	
2720	0	32768	
2721	0	32752	
2722	0	32769	
2723	0	32801	
2724	0	32788	
2725	0	32808	
2726	0	32824	
2727	0	32744	
2728	0	32792	
2729	0	32752	
2730	0	32852	
2731	0	32848	
2732	0	32800	
2733	0	32810	
2734	0	32728	
2735	0	32740	
2736	0	32764	
2737	0	32732	
2738	0	32732	
2739	0	32772	
2740	0	32784	
2741	0	32776	
2742	0	32793	
2743	0	32784	
2744	0	32792	
2745	0	32836	
2746	0	32784	
2747	0	32816	
2748	0	32729	
2749	0	32824	
2750	0	32800	
2751	0	32788	
2752	0	32720	
2753	0	32688	
2754	0	32740	
2755	0	32804	
2756	0	32750	
2757	0	32692	
2758	0	32688	
2759	0	32808	
2760	0	32774	
2761	0	32804	
2762	0	32736	
2763	0	32814	
2764	0	32784	
2765	0	32816	
2766	0	32772	
2767	0	32806	
2768	0	32812	
2769	0	32812	
2770	0	32816	
2771	0	32732	
2772	0	32736	
2773	0	32768	
2774	0	32824	
2775	0	32784	
2776	0	32776	
2777	0	32761	
2778	0	32772	
2779	0	32784	
2780	0	32748	
2781	0	32756	
2782	0	32780	
2783	0	32848	
2784	0	32744	
2785	0	32860	
2786	0	32885	
2787	0	32832	
2788	0	32824	
2789	0	32784	
2790	0	32856	
2791	0	32856	
2792	0	32772	
2793	0	32728	
2794	0	32728	
2795	0	32752	
2796	0	32756	
2797	0	32708	
2798	0	32760	
2799	0	32764	
2800	0	32760	
2801	0	32757	
2802	0	32804	
2803	0	32812	
2804	0	32720	
2805	0	32736	
2806	0	32812	
2807	0	32736	
2808	0	32768	
2809	0	32820	
2810	0	32830	
2811	0	32788	
2812	0	32772	
2813	0	32792	
2814	0	32788	
2815	0	32752	
2816	0	32740	
2817	0	32740	
2818	0	32734	
2819	0	32724	
2820	0	32772	
2821	0	32760	
2822	0	32760	
2823	0	32788	
2824	0	32852	
2825	0	32802	
2826	0	32820	
2827	0	32760	
2828	0	32792	
2829	0	32812	
2830	0	32804	
2831	0	32796	
2832	0	32800	
2833	0	32813	
2834	0	32756	
2835	0	32737	
2836	0	32680	
2837	0	32764	
2838	0	32737	
2839	0	32750	
2840	0	32742	
2841	0	32836	
2842	0	32864	
2843	0	32796	
2844	0	32784	
2845	0	32852	
2846	0	32776	
2847	0	32792	
2848	0	32816	
2849	0	32812	
2850	0	32852	
2851	0	32853	
2852	0	32832	
2853	0	32786	
2854	0	32756	
2855	0	32753	
2856	0	32676	
2857	0	32712	
2858	0	32696	
2859	0	32722	
2860	0	32798	
2861	0	32792	
2862	0	32770	
2863	0	32768	
2864	0	32720	
2865	0	32721	
2866	0	32784	
2867	0	32780	
2868	0	32718	
2869	0	32820	
2870	0	32813	
2871	0	32790	
2872	0	32749	
2873	0	32752	
2874	0	32708	
2875	0	32708	
2876	0	32724	
2877	0	32716	
2878	0	32740	
2879	0	32760	
2880	0	32800	
2881	0	32840	
2882	0	32836	
2883	0	32844	
2884	0	32832	
2885	0	32840	
2886	0	32870	
2887	0	32858	
2888	0	32808	
2889	0	32892	
2890	0	32828	
2891	0	32836	
2892	0	32866	
2893	0	32830	
2894	0	32725	
2895	0	32748	
2896	0	32748	
2897	0	32768	
2898	0	32764	
2899	0	32768	
2900	0	32728	
2901	0	32745	
2902	0	32728	
2903	0	32784	
2904	0	32813	
2905	0	32821	
2906	0	32808	
2907	0	32776	
2908	0	32860	
2909	0	32853	
2910	0	32724	
2911	0	32736	
2912	0	32756	
2913	0	32744	
2914	0	32740	
2915	0	32768	
2916	0	32720	
2917	0	32716	
2918	0	32676	
2919	0	32744	
2920	0	32788	
2921	0	32732	
2922	0	32856	
2923	0	32844	
2924	0	32868	
2925	0	32800	
2926	0	32813	
2927	0	32801	
2928	0	32824	
2929	0	32800	
2930	0	32776	
2931	0	32762	
2932	0	32752	
2933	0	32807	
2934	0	32748	
2935	0	32788	
2936	0	32736	
2937	0	32632	
2938	0	32772	
2939	0	32708	
2940	0	32790	
2941	0	32820	
2942	0	32824	
2943	0	32785	
2944	0	32816	
2945	0	32804	
2946	0	32792	
2947	0	32857	
2948	0	32789	
2949	0	32774	
2950	0	32796	
2951	0	32856	
2952	0	32808	
2953	0	32700	
2954	0	32712	
2955	0	32748	
2956	0	32712	
2957	0	32732	
2958	0	32724	
2959	0	32720	
2960	0	32748	
2961	0	32788	
2962	0	32792	
2963	0	32804	
2964	0	32832	
2965	0	32808	
2966	0	32800	
2967	0	32768	
2968	0	32788	
2969	0	32840	
2970	0	32832	
2971	0	32821	
2972	0	32800	
2973	0	32684	
2974	0	32748	
2975	0	32716	
2976	0	32816	
2977	0	32800	
2978	0	32740	
2979	0	32744	
2980	0	32752	
2981	0	32724	
2982	0	32824	
2983	0	32784	
2984	0	32764	
2985	0	32760	
2986	0	32816	
2987	0	32796	
2988	0	32813	
2989	0	32788	
2990	0	32820	
2991	0	32804	
2992	0	32828	
2993	0	32816	
2994	0	32834	
2995	0	32788	
2996	0	32708	
2997	0	32680	
2998	0	32732	
2999	0	32760	
3000	0	32793	
3001	0	32768	
3002	0	32784	
3003	0	32804	
3004	0	32852	
3005	0	32744	
3006	0	32804	
3007	0	32748	
3008	0	32796	
3009	0	32852	
3010	0	32852	
3011	0	32884	
3012	0	32760	
3013	0	32788	
3014	0	32772	
3015	0	32724	
3016	0	32732	
3017	0	32696	
3018	0	32732	
3019	0	32704	
3020	0	32752	
3021	0	32676	
3022	0	32828	
3023	0	32797	
3024	0	32828	
3025	0	32832	
3026	0	32836	
3027	0	32820	
3028	0	32812	
3029	0	32872	
3030	0	32764	
3031	0	32812	
3032	0	32736	
3033	0	32752	
3034	0	32716	
3035	0	32741	
3036	0	32761	
3037	0	32732	
3038	0	32780	
3039	0	32740	
3040	0	32784	
3041	0	32735	
3042	0	32804	
3043	0	32772	
3044	0	32832	
3045	0	32790	
3046	0	32788	
3047	0	32824	
3048	0	32833	
3049	0	32839	
3050	0	32796	
3051	0	32820	
3052	0	32768	
3053	0	32676	
3054	0	32760	
3055	0	32696	
3056	0	32741	
3057	0	32664	
3058	0	32776	
3059	0	32860	
3060	0	32752	
3061	0	32793	
3062	0	32848	
3063	0	32792	
3064	0	32700	
3065	0	32832	
3066	0	32760	
3067	0	32784	
3068	0	32832	
3069	0	32879	
3070	0	32860	
3071	0	32781	
3072	0	32796	
3073	0	32748	
3074	0	32724	
3075	0	32738	
3076	0	32728	
3077	0	32732	
3078	0	32708	
3079	0	32812	
3080	0	32804	
3081	0	32756	
3082	0	32773	
3083	0	32808	
3084	0	32816	
3085	0	32856	
3086	0	32764	
3087	0	32784	
3088	0	32808	
3089	0	32805	
3090	0	32820	
3091	0	32916	
3092	0	32752	
3093	0	32744	
3094	0	32732	
3095	0	32696	
3096	0	32773	
3097	0	32748	
3098	0	32732	
3099	0	32820	
3100	0	32784	
3101	0	32749	
3102	0	32736	
3103	0	32832	
3104	0	32852	
3105	0	32777	
3106	0	32796	
3107	0	32800	
3108	0	32784	
3109	0	32884	
3110	0	32804	
3111	0	32804	
3112	0	32728	
3113	0	32712	
3114	0	32761	
3115	0	32740	
3116	0	32744	
3117	0	32733	
3118	0	32784	
3119	0	32782	
3120	0	32820	
3121	0	32748	
3122	0	32797	
3123	0	32804	
3124	0	32860	
3125	0	32820	
3126	0	32749	
3127	0	32808	
3128	0	32832	
3129	0	32814	
3130	0	32832	
3131	0	32814	
3132	0	32745	
3133	0	32764	
3134	0	32804	
3135	0	32736	
3136	0	32680	
3137	0	32704	
3138	0	32720	
3139	0	32753	
3140	0	32748	
3141	0	32730	
3142	0	32828	
3143	0	32821	
3144	0	32804	
3145	0	32862	
3146	0	32816	
3147	0	32797	
3148	0	32828	
3149	0	32808	
3150	0	32784	
3151	0	32816	
3152	0	32736	
3153	0	32712	
3154	0	32718	
3155	0	32716	
3156	0	32794	
3157	0	32744	
3158	0	32704	
3159	0	32724	
3160	0	32820	
3161	0	32764	
3162	0	32804	
3163	0	32833	
3164	0	32821	
3165	0	32812	
3166	0	32808	
3167	0	32784	
3168	0	32832	
3169	0	32822	
3170	0	32810	
3171	0	32784	
3172	0	32772	
3173	0	32772	
3174	0	32772	
3175	0	32724	
3176	0	32724	
3177	0	32752	
3178	0	32736	
3179	0	32808	
3180	0	32760	
3181	0	32808	
3182	0	32768	
3183	0	32849	
3184	0	32799	
3185	0	32813	
3186	0	32772	
3187	0	32804	
3188	0	32788	
3189	0	32821	
3190	0	32804	
3191	0	32816	
3192	0	32744	
3193	0	32732	
3194	0	32736	
3195	0	32784	
3196	0	32740	
3197	0	32748	
3198	0	32728	
3199	0	32788	
3200	0	32713	
3201	0	32808	
3202	0	32780	
3203	0	32877	
3204	0	32760	
3205	0	32748	
3206	0	32869	
3207	0	32776	
3208	0	32796	
3209	0	32762	
3210	0	32784	
3211	0	32876	
3212	0	32792	
3213	0	32804	
3214	0	32788	
3215	0	32724	
3216	0	32800	
3217	0	32776	
3218	0	32724	
3219	0	32724	
3220	0	32816	
3221	0	32800	
3222	0	32860	
3223	0	32776	
3224	0	32748	
3225	0	32793	
3226	0	32800	
3227	0	32761	
3228	0	32840	
3229	0	32796	
3230	0	32837	
3231	0	32756	
3232	0	32764	
3233	0	32800	
3234	0	32760	
3235	0	32784	
3236	0	32732	
3237	0	32708	
3238	0	32800	
3239	0	32725	
3240	0	32756	
3241	0	32780	
3242	0	32776	
3243	0	32832	
3244	0	32895	
3245	0	32800	
3246	0	32793	
3247	0	32776	
3248	0	32768	
3249	0	32812	
3250	0	32857	
3251	0	32772	
3252	0	32774	
3253	0	32800	
3254	0	32756	
3255	0	32780	
3256	0	32705	
3257	0	32690	
3258	0	32712	
3259	0	32726	
3260	0	32765	
3261	0	32808	
3262	0	32840	
3263	0	32820	
3264	0	32828	
3265	0	32736	
3266	0	32804	
3267	0	32846	
3268	0	32780	
3269	0	32736	
3270	0	32864	
3271	0	32885	
3272	0	32764	
3273	0	32780	
3274	0	32775	
3275	0	32712	
3276	0	32724	
3277	0	32700	
3278	0	32792	
3279	0	32732	
3280	0	32788	
3281	0	32836	
3282	0	32721	
3283	0	32724	
3284	0	32812	
3285	0	32764	
3286	0	32828	
3287	0	32816	
3288	0	32772	
3289	0	32752	
3290	0	32840	
3291	0	32816	
3292	0	32832	
3293	0	32728	
3294	0	32736	
3295	0	32692	
3296	0	32752	
3297	0	32709	
3298	0	32776	
3299	0	32732	
3300	0	32804	
3301	0	32772	
3302	0	32762	
3303	0	32856	
3304	0	32764	
3305	0	32764	
3306	0	32816	
3307	0	32812	
3308	0	32864	
3309	0	32852	
3310	0	32848	
3311	0	32812	
3312	0	32800	
3313	0	32708	
3314	0	32776	
3315	0	32764	
3316	0	32740	
3317	0	32702	
3318	0	32788	
3319	0	32756	
3320	0	32756	
3321	0	32752	
3322	0	32828	
3323	0	32744	
3324	0	32831	
3325	0	32792	
3326	0	32828	
3327	0	32824	
3328	0	32816	
3329	0	32758	
3330	0	32816	
3331	0	32780	
3332	0	32756	
3333	0	32744	
3334	0	32800	
3335	0	32728	
3336	0	32788	
3337	0	32692	
3338	0	32768	
3339	0	32744	
3340	0	32800	
3341	0	32717	
3342	0	32806	
3343	0	32820	
3344	0	32816	
3345	0	32820	
3346	0	32816	
3347	0	32824	
3348	0	32792	
3349	0	32832	
3350	0	32844	
3351	0	32816	
3352	0	32764	
3353	0	32724	
3354	0	32774	
3355	0	32768	
3356	0	32704	
3357	0	32744	
3358	0	32720	
3359	0	32748	
3360	0	32773	
3361	0	32764	
3362	0	32780	
3363	0	32877	
3364	0	32844	
3365	0	32829	
3366	0	32808	
3367	0	32788	
3368	0	32848	
3369	0	32849	
3370	0	32756	
3371	0	32852	
3372	0	32740	
3373	0	32760	
3374	0	32817	
3375	0	32724	
3376	0	32784	
3377	0	32736	
3378	0	32752	
3379	0	32704	
3380	0	32761	
3381	0	32737	
3382	0	32762	
3383	0	32860	
3384	0	32804	
3385	0	32824	
3386	0	32772	
3387	0	32852	
3388	0	32748	
3389	0	32800	
3390	0	32836	
3391	0	32796	
3392	0	32784	
3393	0	32756	
3394	0	32704	
3395	0	32756	
3396	0	32752	
3397	0	32724	
3398	0	32808	
3399	0	32768	
3400	0	32744	
3401	0	32808	
3402	0	32756	
3403	0	32868	
3404	0	32788	
3405	0	32775	
3406	0	32752	
3407	0	32880	
3408	0	32800	
3409	0	32760	
3410	0	32818	
3411	0	32804	
3412	0	32856	
3413	0	32836	
3414	0	32712	
3415	0	32668	
3416	0	32746	
3417	0	32708	
3418	0	32768	
3419	0	32790	
3420	0	32760	
3421	0	32840	
3422	0	32764	
3423	0	32748	
3424	0	32808	
3425	0	32788	
3426	0	32836	
3427	0	32808	
3428	0	32804	
3429	0	32780	
3430	0	32878	
3431	0	32728	
3432	0	32790	
3433	0	32800	
3434	0	32716	
3435	0	32736	
3436	0	32752	
3437	0	32808	
3438	0	32756	
3439	0	32764	
3440	0	32793	
3441	0	32760	
3442	0	32712	
3443	0	32872	
3444	0	32772	
3445	0	32765	
3446	0	32878	
3447	0	32800	
3448	0	32764	
3449	0	32832	
3450	0	32804	
3451	0	32777	
3452	0	32832	
3453	0	32741	
3454	0	32804	
3455	0	32732	
3456	0	32692	
3457	0	32696	
3458	0	32772	
3459	0	32718	
3460	0	32824	
3461	0	32768	
3462	0	32772	
3463	0	32868	
3464	0	32788	
3465	0	32800	
3466	0	32784	
3467	0	32837	
3468	0	32736	
3469	0	32776	
3470	0	32788	
3471	0	32756	
3472	0	32740	
3473	0	32788	
3474	0	32764	
3475	0	32716	
3476	0	32716	
3477	0	32656	
3478	0	32781	
3479	0	32810	
3480	0	32781	
3481	0	32788	
3482	0	32830	
3483	0	32816	
3484	0	32792	
3485	0	32772	
3486	0	32724	
3487	0	32724	
3488	0	32820	
3489	0	32720	
3490	0	32732	
3491	0	32800	
3492	0	32676	
3493	0	32696	
3494	0	32732	
3495	0	32796	
3496	0	32684	
3497	0	32773	
3498	0	32684	
3499	0	32736	
3500	0	32788	
3501	0	32824	
3502	0	32860	
3503	0	32888	
3504	0	32936	
3505	0	32848	
3506	0	32896	
3507	0	32880	
3508	0	32816	
3509	0	32856	
3510	0	32852	
3511	0	32836	
3512	0	32804	
3513	0	32756	
3514	0	32762	
3515	0	32792	
3516	0	32774	
3517	0	32749	
3518	0	32696	
3519	0	32740	
3520	0	32796	
3521	0	32816	
3522	0	32836	
3523	0	32788	
3524	0	32756	
3525	0	32748	
3526	0	32800	
3527	0	32768	
3528	0	32788	
3529	0	32796	
3530	0	32769	
3531	0	32844	
3532	0	32704	
3533	0	32764	
3534	0	32748	
3535	0	32788	
3536	0	32716	
3537	0	32742	
3538	0	32720	
3539	0	32712	
3540	0	32736	
3541	0	32752	
3542	0	32804	
3543	0	32748	
3544	0	32820	
3545	0	32788	
3546	0	32806	
3547	0	32832	
3548	0	32777	
3549	0	32772	
3550	0	32856	
3551	0	32832	
3552	0	32800	
3553	0	32752	
3554	0	32772	
3555	0	32796	
3556	0	32688	
3557	0	32724	
3558	0	32812	
3559	0	32732	
3560	0	32768	
3561	0	32868	
3562	0	32800	
3563	0	32808	
3564	0	32776	
3565	0	32764	
3566	0	32828	
3567	0	32750	
3568	0	32844	
3569	0	32856	
3570	0	32864	
3571	0	32816	
3572	0	32724	
3573	0	32756	
3574	0	32734	
3575	0	32732	
3576	0	32728	
3577	0	32777	
3578	0	32748	
3579	0	32748	
3580	0	32740	
3581	0	32788	
3582	0	32768	
3583	0	32792	
3584	0	32796	
3585	0	32814	
3586	0	32744	
3587	0	32784	
3588	0	32828	
3589	0	32844	
3590	0	32848	
3591	0	32821	
3592	0	32740	
3593	0	32688	
3594	0	32757	
3595	0	32710	
3596	0	32704	
3597	0	32741	
3598	0	32720	
3599	0	32765	
3600	0	32752	
3601	0	32789	
3602	0	32820	
3603	0	32812	
3604	0	32804	
3605	0	32871	
3606	0	32796	
3607	0	32820	
3608	0	32824	
3609	0	32774	
3610	0	32836	
3611	0	32824	
3612	0	32796	
3613	0	32760	
3614	0	32744	
3615	0	32680	
3616	0	32720	
3617	0	32716	
3618	0	32741	
3619	0	32756	
3620	0	32772	
3621	0	32740	
3622	0	32797	
3623	0	32840	
3624	0	32764	
3625	0	32808	
3626	0	32780	
3627	0	32765	
3628	0	32796	
3629	0	32764	
3630	0	32848	
3631	0	32812	
3632	0	32732	
3633	0	32797	
3634	0	32745	
3635	0	32780	
3636	0	32828	
3637	0	32676	
3638	0	32729	
3639	0	32764	
3640	0	32760	
3641	0	32820	
3642	0	32776	
3643	0	32807	
3644	0	32776	
3645	0	32824	
3646	0	32832	
3647	0	32860	
3648	0	32772	
3649	0	32752	
3650	0	32876	
3651	0	32784	
3652	0	32777	
3653	0	32736	
3654	0	32737	
3655	0	32679	
3656	0	32733	
3657	0	32724	
3658	0	32776	
3659	0	32740	
3660	0	32817	
3661	0	32788	
3662	0	32820	
3663	0	32772	
3664	0	32804	
3665	0	32820	
3666	0	32864	
3667	0	32757	
3668	0	32776	
3669	0	32824	
3670	0	32774	
3671	0	32768	
3672	0	32788	
3673	0	32716	
3674	0	32812	
3675	0	32712	
3676	0	32708	
3677	0	32740	
3678	0	32736	
3679	0	32749	
3680	0	32797	
3681	0	32748	
3682	0	32808	
3683	0	32780	
3684	0	32800	
3685	0	32780	
3686	0	32792	
3687	0	32804	
3688	0	32808	
3689	0	32745	
3690	0	32880	
3691	0	32820	
3692	0	32796	
3693	0	32828	
3694	0	32729	
3695	0	32816	
3696	0	32756	
3697	0	32724	
3698	0	32676	
3699	0	32776	
3700	0	32745	
3701	0	32740	
3702	0	32833	
3703	0	32818	
3704	0	32784	
3705	0	32741	
3706	0	32829	
3707	0	32844	
3708	0	32754	
3709	0	32837	
3710	0	32824	
3711	0	32804	
3712	0	32728	
3713	0	32772	
3714	0	32720	
3715	0	32772	
3716	0	32693	
3717	0	32725	
3718	0	32752	
3719	0	32840	
3720	0	32764	
3721	0	32802	
3722	0	32812	
3723	0	32809	
3724	0	32788	
3725	0	32808	
3726	0	32848	
3727	0	32756	
3728	0	32752	
3729	0	32820	
3730	0	32869	
3731	0	32836	
3732	0	32774	
3733	0	32782	
3734	0	32760	
3735	0	32716	
3736	0	32764	
3737	0	32684	
3738	0	32752	
3739	0	32820	
3740	0	32732	
3741	0	32752	
3742	0	32800	
3743	0	32828	
3744	0	32788	
3745	0	32788	
3746	0	32832	
3747	0	32808	
3748	0	32848	
3749	0	32788	
3750	0	32836	
3751	0	32800	
3752	0	32832	
3753	0	32676	
3754	0	32792	
3755	0	32780	
3756	0	32720	
3757	0	32684	
3758	0	32804	
3759	0	32784	
3760	0	32728	
3761	0	32800	
3762	0	32784	
3763	0	32764	
3764	0	32860	
3765	0	32794	
3766	0	32856	
3767	0	32768	
3768	0	32816	
3769	0	32740	
3770	0	32752	
3771	0	32776	
3772	0	32784	
3773	0	32804	
3774	0	32756	
3775	0	32768	
3776	0	32736	
3777	0	32680	
3778	0	32796	
3779	0	32788	
3780	0	32764	
3781	0	32800	
3782	0	32834	
3783	0	32828	
3784	0	32801	
3785	0	32725	
3786	0	32832	
3787	0	32782	
3788	0	32773	
3789	0	32692	
3790	0	32817	
3791	0	32788	
3792	0	32724	
3793	0	32758	
3794	0	32764	
3795	0	32768	
3796	0	32736	
3797	0	32716	
3798	0	32772	
3799	0	32780	
3800	0	32760	
3801	0	32816	
3802	0	32800	
3803	0	32812	
3804	0	32812	
3805	0	32792	
3806	0	32788	
3807	0	32776	
3808	0	32804	
3809	0	32836	
3810	0	32808	
3811	0	32812	
3812	0	32836	
3813	0	32752	
3814	0	32720	
3815	0	32768	
3816	0	32783	
3817	0	32752	
3818	0	32736	
3819	0	32808	
3820	0	32788	
3821	0	32760	
3822	0	32824	
3823	0	32792	
3824	0	32804	
3825	0	32804	
3826	0	32760	
3827	0	32836	
3828	0	32777	
3829	0	32780	
3830	0	32806	
3831	0	32812	
3832	0	32752	
3833	0	32760	
3834	0	32760	
3835	0	32776	
3836	0	32680	
3837	0	32812	
3838	0	32820	
3839	0	32830	
3840	0	32718	
3841	0	32788	
3842	0	32768	
3843	0	32808	
3844	0	32781	
3845	0	32860	
3846	0	32812	
3847	0	32764	
3848	0	32748	
3849	0	32768	
3850	0	32796	
3851	0	32790	
3852	0	32772	
3853	0	32740	
3854	0	32748	
3855	0	32772	
3856	0	32716	
3857	0	32740	
3858	0	32804	
3859	0	32828	
3860	0	32800	
3861	0	32799	
3862	0	32720	
3863	0	32760	
3864	0	32828	
3865	0	32812	
3866	0	32868	
3867	0	32836	
3868	0	32844	
3869	0	32768	
3870	0	32732	
3871	0	32777	
3872	0	32800	
3873	0	32756	
3874	0	32776	
3875	0	32712	
3876	0	32720	
3877	0	32734	
3878	0	32712	
3879	0	32764	
3880	0	32784	
3881	0	32741	
3882	0	32756	
3883	0	32865	
3884	0	32792	
3885	0	32864	
3886	0	32780	
3887	0	32724	
3888	0	32736	
3889	0	32804	
3890	0	32772	
3891	0	32780	
3892	0	32808	
3893	0	32736	
3894	0	32800	
3895	0	32772	
3896	0	32716	
3897	0	32726	
3898	0	32808	
3899	0	32812	
3900	0	32713	
3901	0	32776	
3902	0	32812	
3903	0	32764	
3904	0	32826	
3905	0	32844	
3906	0	32757	
3907	0	32900	
3908	0	32832	
3909	0	32789	
3910	0	32784	
3911	0	32744	
3912	0	32706	
3913	0	32728	
3914	0	32748	
3915	0	32788	
3916	0	32684	
3917	0	32736	
3918	0	32752	
3919	0	32825	
3920	0	32776	
3921	0	32824	
3922	0	32816	
3923	0	32824	
3924	0	32740	
3925	0	32780	
3926	0	32804	
3927	0	32756	
3928	0	32818	
3929	0	32864	
3930	0	32824	
3931	0	32823	
3932	0	32768	
3933	0	32764	
3934	0	32764	
3935	0	32693	
3936	0	32732	
3937	0	32732	
3938	0	32676	
3939	0	32718	
3940	0	32828	
3941	0	32744	
3942	0	32836	
3943	0	32785	
3944	0	32812	
3945	0	32818	
3946	0	32800	
3947	0	32780	
3948	0	32796	
3949	0	32828	
3950	0	32818	
3951	0	32800	
3952	0	32829	
3953	0	32752	
3954	0	32740	
3955	0	32784	
3956	0	32736	
3957	0	32724	
3958	0	32772	
3959	0	32732	
3960	0	32788	
3961	0	32736	
3962	0	32761	
3963	0	32792	
3964	0	32788	
3965	0	32788	
3966	0	32780	
3967	0	32868	
3968	0	32842	
3969	0	32800	
3970	0	32804	
3971	0	32748	
3972	0	32774	
3973	0	32760	
3974	0	32772	
3975	0	32748	
3976	0	32744	
3977	0	32713	
3978	0	32772	
3979	0	32788	
3980	0	32792	
3981	0	32728	
3982	0	32848	
3983	0	32760	
3984	0	32844	
3985	0	32844	
3986	0	32774	
3987	0	32804	
3988	0	32769	
3989	0	32788	
3990	0	32848	
3991	0	32840	
3992	0	32742	
3993	0	32708	
3994	0	32756	
3995	0	32816	
3996	0	32736	
3997	0	32706	
3998	0	32744	
3999	0	32772	
4000	0	32804	
4001	0	32712	
4002	0	32824	
4003	0	32796	
4004	0	32781	
4005	0	32840	
4006	0	32804	
4007	0	32801	
4008	0	32725	
4009	0	32799	
4010	0	32876	
4011	0	32820	
4012	0	32808	
4013	0	32772	
4014	0	32804	
4015	0	32784	
4016	0	32772	
4017	0	32705	
4018	0	32652	
4019	0	32740	
4020	0	32760	
4021	0	32756	
4022	0	32868	
4023	0	32808	
4024	0	32800	
4025	0	32757	
4026	0	32848	
4027	0	32796	
4028	0	32813	
4029	0	32816	
4030	0	32764	
4031	0	32760	
4032	0	32724	
4033	0	32704	
4034	0	32772	
4035	0	32768	
4036	0	32768	
4037	0	32712	
4038	0	32744	
4039	0	32760	
4040	0	32728	
4041	0	32764	
4042	0	32770	
4043	0	32800	
4044	0	32776	
4045	0	32805	
4046	0	32784	
4047	0	32832	
4048	0	32800	
4049	0	32828	
4050	0	32804	
4051	0	32796	
4052	0	32772	
4053	0	32692	
4054	0	32776	
4055	0	32700	
4056	0	32724	
4057	0	32768	
4058	0	32788	
4059	0	32728	
4060	0	32760	
4061	0	32744	
4062	0	32828	
4063	0	32852	
4064	0	32796	
4065	0	32808	
4066	0	32816	
4067	0	32772	
4068	0	32800	
4069	0	32772	
4070	0	32840	
4071	0	32781	
4072	0	32792	
4073	0	32772	
4074	0	32788	
4075	0	32750	
4076	0	32736	
4077	0	32660	
4078	0	32734	
4079	0	32748	
4080	0	32832	
4081	0	32800	
4082	0	32824	
4083	0	32730	
4084	0	32800	
4085	0	32792	
4086	0	32772	
4087	0	32814	
4088	0	32776	
4089	0	32800	
4090	0	32820	
4091	0	32824	
4092	0	32796	
4093	0	32812	
4094	0	32788	
4095	0	32775	
4096	0	32736	
4097	0	32768	
4098	0	32784	
4099	0	32768	
4100	0	32720	
4101	0	32736	
4102	0	32858	
4103	0	32796	
4104	0	32832	
4105	0	32796	
4106	0	32800	
4107	0	32784	
4108	0	32836	
4109	0	32796	
4110	0	32780	
4111	0	32736	
4112	0	32704	
4113	0	32716	
4114	0	32760	
4115	0	32732	
4116	0	32736	
4117	0	32668	
4118	0	32712	
4119	0	32684	
4120	0	32780	
4121	0	32728	
4122	0	32756	
4123	0	32776	
4124	0	32824	
4125	0	32744	
4126	0	32708	
4127	0	32800	
4128	0	32828	
4129	0	32768	
4130	0	32852	
4131	0	32812	
4132	0	32829	
4133	0	32759	
4134	0	32792	
4135	0	32824	
4136	0	32832	
4137	0	32863	
4138	0	32764	
4139	0	32792	
4140	0	32868	
4141	0	32804	
4142	0	32796	
4143	0	32784	
4144	0	32840	
4145	0	32842	
4146	0	32794	
4147	0	32802	
4148	0	32748	
4149	0	32856	
4150	0	32842	
4151	0	32836	
4152	0	32792	
4153	0	32821	
4154	0	32820	
4155	0	32788	
4156	0	32720	
4157	0	32736	
4158	0	32689	
4159	0	32752	
4160	0	32744	
4161	0	32760	
4162	0	32756	
4163	0	32836	
4164	0	32712	
4165	0	32772	
4166	0	32772	
4167	0	32756	
4168	0	32792	
4169	0	32832	
4170	0	32820	
4171	0	32814	
4172	0	32720	
4173	0	32736	
4174	0	32704	
4175	0	32724	
4176	0	32772	
4177	0	32757	
4178	0	32680	
4179	0	32788	
4180	0	32784	
4181	0	32792	
4182	0	32784	
4183	0	32812	
4184	0	32805	
4185	0	32788	
4186	0	32830	
4187	0	32840	
4188	0	32736	
4189	0	32816	
4190	0	32794	
4191	0	32824	
4192	0	32748	
4193	0	32780	
4194	0	32764	
4195	0	32773	
4196	0	32661	
4197	0	32768	
4198	0	32736	
4199	0	32808	
4200	0	32780	
4201	0	32796	
4202	0	32744	
4203	0	32840	
4204	0	32884	
4205	0	32828	
4206	0	32820	
4207	0	32768	
4208	0	32740	
4209	0	32808	
4210	0	32816	
4211	0	32848	
4212	0	32800	
4213	0	32764	
4214	0	32834	
4215	0	32680	
4216	0	32708	
4217	0	32748	
4218	0	32716	
4219	0	32728	
4220	0	32768	
4221	0	32849	
4222	0	32800	
4223	0	32848	
4224	0	32804	
4225	0	32744	
4226	0	32804	
4227	0	32789	
4228	0	32844	
4229	0	32845	
4230	0	32805	
4231	0	32804	
4232	0	32804	
4233	0	32760	
4234	0	32720	
4235	0	32740	
4236	0	32768	
4237	0	32716	
4238	0	32768	
4239	0	32792	
4240	0	32728	
4241	0	32754	
4242	0	32820	
4243	0	32813	
4244	0	32816	
4245	0	32752	
4246	0	32852	
4247	0	32850	
4248	0	32797	
4249	0	32832	
4250	0	32832	
4251	0	32788	
4252	0	32757	
4253	0	32748	
4254	0	32776	
4255	0	32744	
4256	0	32748	
4257	0	32732	
4258	0	32676	
4259	0	32766	
4260	0	32792	
4261	0	32736	
4262	0	32804	
4263	0	32784	
4264	0	32804	
4265	0	32796	
4266	0	32808	
4267	0	32776	
4268	0	32810	
4269	0	32800	
4270	0	32848	
4271	0	32852	
4272	0	32780	
4273	0	32724	
4274	0	32732	
4275	0	32752	
4276	0	32772	
4277	0	32752	
4278	0	32728	
4279	0	32748	
4280	0	32761	
4281	0	32756	
4282	0	32788	
4283	0	32764	
4284	0	32793	
4285	0	32916	
4286	0	32853	
4287	0	32720	
4288	0	32812	
4289	0	32836	
4290	0	32864	
4291	0	32760	
4292	0	32788	
4293	0	32758	
4294	0	32752	
4295	0	32780	
4296	0	32796	
4297	0	32776	
4298	0	32792	
4299	0	32712	
4300	0	32752	
4301	0	32736	
4302	0	32740	
4303	0	32832	
4304	0	32820	
4305	0	32876	
4306	0	32800	
4307	0	32764	
4308	0	32776	
4309	0	32800	
4310	0	32744	
4311	0	32796	
4312	0	32756	
4313	0	32688	
4314	0	32778	
4315	0	32740	
4316	0	32724	
4317	0	32740	
4318	0	32736	
4319	0	32806	
4320	0	32788	
4321	0	32812	
4322	0	32776	
4323	0	32824	
4324	0	32764	
4325	0	32868	
4326	0	32792	
4327	0	32868	
4328	0	32740	
4329	0	32804	
4330	0	32808	
4331	0	32792	
4332	0	32776	
4333	0	32752	
4334	0	32756	
4335	0	32678	
4336	0	32792	
4337	0	32748	
4338	0	32748	
4339	0	32800	
4340	0	32764	
4341	0	32816	
4342	0	32840	
4343	0	32784	
4344	0	32816	
4345	0	32840	
4346	0	32812	
4347	0	32840	
4348	0	32809	
4349	0	32784	
4350	0	32852	
4351	0	32812	
4352	0	32775	
4353	0	32788	
4354	0	32692	
4355	0	32756	
4356	0	32701	
4357	0	32740	
4358	0	32752	
4359	0	32724	
4360	0	32830	
4361	0	32796	
4362	0	32808	
4363	0	32776	
4364	0	32788	
4365	0	32792	
4366	0	32728	
4367	0	32788	
4368	0	32800	
4369	0	32765	
4370	0	32834	
4371	0	32876	
4372	0	32764	
4373	0	32740	
4374	0	32738	
4375	0	32728	
4376	0	32680	
4377	0	32724	
4378	0	32728	
4379	0	32796	
4380	0	32768	
4381	0	32772	
4382	0	32784	
4383	0	32800	
4384	0	32775	
4385	0	32688	
4386	0	32844	
4387	0	32808	
4388	0	32856	
4389	0	32828	
4390	0	32808	
4391	0	32864	
4392	0	32820	
4393	0	32828	
4394	0	32816	
4395	0	32737	
4396	0	32748	
4397	0	32688	
4398	0	32676	
4399	0	32759	
4400	0	32804	
4401	0	32804	
4402	0	32772	
4403	0	32732	
4404	0	32792	
4405	0	32812	
4406	0	32812	
4407	0	32740	
4408	0	32796	
4409	0	32844	
4410	0	32840	
4411	0	32840	
4412	0	32788	
4413	0	32808	
4414	0	32696	
4415	0	32749	
4416	0	32784	
4417	0	32716	
4418	0	32752	
4419	0	32748	
4420	0	32804	
4421	0	32804	
4422	0	32800	
4423	0	32784	
4424	0	32744	
4425	0	32808	
4426	0	32836	
4427	0	32816	
4428	0	32796	
4429	0	32788	
4430	0	32800	
4431	0	32800	
4432	0	32825	
4433	0	32800	
4434	0	32756	
4435	0	32746	
4436	0	32734	
4437	0	32804	
4438	0	32720	
4439	0	32797	
4440	0	32804	
4441	0	32825	
4442	0	32756	
4443	0	32780	
4444	0	32800	
4445	0	32800	
4446	0	32812	
4447	0	32785	
4448	0	32780	
4449	0	32740	
4450	0	32772	
4451	0	32852	
4452	0	32806	
4453	0	32745	
4454	0	32768	
4455	0	32724	
4456	0	32816	
4457	0	32744	
4458	0	32740	
4459	0	32816	
4460	0	32768	
4461	0	32744	
4462	0	32836	
4463	0	32844	
4464	0	32844	
4465	0	32736	
4466	0	32734	
4467	0	32824	
4468	0	32784	
4469	0	32840	
4470	0	32821	
4471	0	32839	
4472	0	32800	
4473	0	32740	
4474	0	32712	
4475	0	32720	
4476	0	32704	
4477	0	32800	
4478	0	32724	
4479	0	32784	
4480	0	32804	
4481	0	32797	
4482	0	32768	
4483	0	32868	
4484	0	32800	
4485	0	32796	
4486	0	32768	
4487	0	32829	
4488	0	32740	
4489	0	32838	
4490	0	32912	
4491	0	32820	
4492	0	32773	
4493	0	32736	
4494	0	32745	
4495	0	32720	
4496	0	32684	
4497	0	32756	
4498	0	32769	
4499	0	32756	
4500	0	32784	
4501	0	32764	
4502	0	32848	
4503	0	32788	
4504	0	32850	
4505	0	32774	
4506	0	32856	
4507	0	32740	
4508	0	32780	
4509	0	32840	
4510	0	32817	
4511	0	32860	
4512	0	32804	
4513	0	32732	
4514	0	32736	
4515	0	32729	
4516	0	32740	
4517	0	32702	
4518	0	32701	
4519	0	32788	
4520	0	32792	
4521	0	32804	
4522	0	32800	
4523	0	32832	
4524	0	32848	
4525	0	32736	
4526	0	32824	
4527	0	32796	
4528	0	32804	
4529	0	32860	
4530	0	32840	
4531	0	32880	
4532	0	32808	
4533	0	32764	
4534	0	32788	
4535	0	32768	
4536	0	32740	
4537	0	32764	
4538	0	32772	
4539	0	32753	
4540	0	32713	
4541	0	32790	
4542	0	32860	
4543	0	32840	
4544	0	32800	
4545	0	32740	
4546	0	32828	
4547	0	32824	
4548	0	32796	
4549	0	32748	
4550	0	32840	
4551	0	32796	
4552	0	32772	
4553	0	32716	
4554	0	32733	
4555	0	32740	
4556	0	32812	
4557	0	32760	
4558	0	32737	
4559	0	32704	
4560	0	32752	
4561	0	32836	
4562	0	32840	
4563	0	32844	
4564	0	32788	
4565	0	32836	
4566	0	32812	
4567	0	32744	
4568	0	32800	
4569	0	32796	
4570	0	32812	
4571	0	32816	
4572	0	32784	
4573	0	32692	
4574	0	32760	
4575	0	32788	
4576	0	32732	
4577	0	32692	
4578	0	32732	
4579	0	32768	
4580	0	32789	
4581	0	32838	
4582	0	32792	
4583	0	32825	
4584	0	32812	
4585	0	32760	
4586	0	32790	
4587	0	32836	
4588	0	32760	
4589	0	32780	
4590	0	32836	
4591	0	32821	
4592	0	32757	
4593	0	32748	
4594	0	32773	
4595	0	32692	
4596	0	32752	
4597	0	32748	
4598	0	32688	
4599	0	32796	
4600	0	32808	
4601	0	32788	
4602	0	32792	
4603	0	32849	
4604	0	32808	
4605	0	32729	
4606	0	32796	
4607	0	32800	
4608	0	32833	
4609	0	32792	
4610	0	32822	
4611	0	32841	
4612	0	32756	
4613	0	32756	
4614	0	32816	
4615	0	32758	
4616	0	32788	
4617	0	32729	
4618	0	32684	
4619	0	32788	
4620	0	32708	
4621	0	32840	
4622	0	32784	
4623	0	32782	
4624	0	32784	
4625	0	32848	
4626	0	32902	
4627	0	32800	
4628	0	32793	
4629	0	32756	
4630	0	32764	
4631	0	32806	
4632	0	32788	
4633	0	32844	
4634	0	32836	
4635	0	32712	
4636	0	32694	
4637	0	32660	
4638	0	32740	
4639	0	32776	
4640	0	32733	
4641	0	32752	
4642	0	32752	
4643	0	32820	
4644	0	32800	
4645	0	32784	
4646	0	32844	
4647	0	32764	
4648	0	32832	
4649	0	32808	
4650	0	32808	
4651	0	32751	
4652	0	32733	
4653	0	32736	
4654	0	32806	
4655	0	32808	
4656	0	32680	
4657	0	32736	
4658	0	32720	
4659	0	32788	
4660	0	32812	
4661	0	32812	
4662	0	32816	
4663	0	32753	
4664	0	32878	
4665	0	32813	
4666	0	32804	
4667	0	32812	
4668	0	32841	
4669	0	32768	
4670	0	32888	
4671	0	32884	
4672	0	32669	
4673	0	32732	
4674	0	32780	
4675	0	32745	
4676	0	32768	
4677	0	32748	
4678	0	32780	
4679	0	32768	
4680	0	32772	
4681	0	32740	
4682	0	32840	
4683	0	32834	
4684	0	32776	
4685	0	32796	
4686	0	32822	
4687	0	32812	
4688	0	32784	
4689	0	32772	
4690	0	32800	
4691	0	32812	
4692	0	32772	
4693	0	32768	
4694	0	32752	
4695	0	32760	
4696	0	32692	
4697	0	32812	
4698	0	32738	
4699	0	32776	
4700	0	32780	
4701	0	32812	
4702	0	32696	
4703	0	32832	
4704	0	32813	
4705	0	32784	
4706	0	32829	
4707	0	32808	
4708	0	32784	
4709	0	32854	
4710	0	32816	
4711	0	32780	
4712	0	32764	
4713	0	32761	
4714	0	32824	
4715	0	32756	
4716	0	32776	
4717	0	32724	
4718	0	32768	
4719	0	32828	
4720	0	32828	
4721	0	32744	
4722	0	32820	
4723	0	32752	
4724	0	32805	
4725	0	32837	
4726	0	32792	
4727	0	32808	
4728	0	32844	
4729	0	32756	
4730	0	32884	
4731	0	32828	
4732	0	32772	
4733	0	32732	
4734	0	32796	
4735	0	32804	
4736	0	32724	
4737	0	32732	
4738	0	32729	
4739	0	32784	
4740	0	32760	
4741	0	32832	
4742	0	32714	
4743	0	32776	
4744	0	32844	
4745	0	32822	
4746	0	32766	
4747	0	32740	
4748	0	32748	
4749	0	32712	
4750	0	32840	
4751	0	32801	
4752	0	32748	
4753	0	32748	
4754	0	32740	
4755	0	32764	
4756	0	32680	
4757	0	32664	
4758	0	32672	
4759	0	32772	
4760	0	32756	
4761	0	32776	
4762	0	32700	
4763	0	32752	
4764	0	32752	
4765	0	32807	
4766	0	32844	
4767	0	32848	
4768	0	32764	
4769	0	32816	
4770	0	32864	
4771	0	32852	
4772	0	32862	
4773	0	32844	
4774	0	32876	
4775	0	32792	
4776	0	32732	
4777	0	32784	
4778	0	32716	
4779	0	32725	
4780	0	32829	
4781	0	32793	
4782	0	32872	
4783	0	32766	
4784	0	32804	
4785	0	32820	
4786	0	32798	
4787	0	32840	
4788	0	32788	
4789	0	32856	
4790	0	32900	
4791	0	32793	
4792	0	32772	
4793	0	32784	
4794	0	32660	
4795	0	32734	
4796	0	32736	
4797	0	32756	
4798	0	32708	
4799	0	32798	
4800	0	32728	
4801	0	32768	
4802	0	32804	
4803	0	32740	
4804	0	32772	
4805	0	32780	
4806	0	32872	
4807	0	32824	
4808	0	32816	
4809	0	32824	
4810	0	32884	
4811	0	32836	
4812	0	32796	
4813	0	32800	
4814	0	32732	
4815	0	32716	
4816	0	32716	
4817	0	32700	
4818	0	32704	
4819	0	32724	
4820	0	32772	
4821	0	32816	
4822	0	32793	
4823	0	32756	
4824	0	32764	
4825	0	32812	
4826	0	32746	
4827	0	32826	
4828	0	32756	
4829	0	32808	
4830	0	32860	
4831	0	32788	
4832	0	32736	
4833	0	32758	
4834	0	32796	
4835	0	32812	
4836	0	32672	
4837	0	32736	
4838	0	32680	
4839	0	32772	
4840	0	32804	
4841	0	32808	
4842	0	32720	
4843	0	32868	
4844	0	32740	
4845	0	32716	
4846	0	32765	
4847	0	32864	
4848	0	32788	
4849	0	32804	
4850	0	32869	
4851	0	32804	
4852	0	32790	
4853	0	32776	
4854	0	32700	
4855	0	32772	
4856	0	32724	
4857	0	32724	
4858	0	32784	
4859	0	32772	
4860	0	32776	
4861	0	32768	
4862	0	32800	
4863	0	32796	
4864	0	32784	
4865	0	32802	
4866	0	32804	
4867	0	32784	
4868	0	32788	
4869	0	32816	
4870	0	32856	
4871	0	32804	
4872	0	32784	
4873	0	32736	
4874	0	32760	
4875	0	32748	
4876	0	32742	
4877	0	32688	
4878	0	32758	
4879	0	32804	
4880	0	32799	
4881	0	32760	
4882	0	32840	
4883	0	32788	
4884	0	32748	
4885	0	32689	
4886	0	32772	
4887	0	32776	
4888	0	32813	
4889	0	32782	
4890	0	32884	
4891	0	32812	
4892	0	32816	
4893	0	32704	
4894	0	32768	
4895	0	32728	
4896	0	32736	
4897	0	32752	
4898	0	32740	
4899	0	32788	
4900	0	32832	
4901	0	32816	
4902	0	32768	
4903	0	32766	
4904	0	32774	
4905	0	32800	
4906	0	32836	
4907	0	32845	
4908	0	32764	
4909	0	32776	
4910	0	32820	
4911	0	32774	
4912	0	32764	
4913	0	32748	
4914	0	32756	
4915	0	32760	
4916	0	32788	
4917	0	32736	
4918	0	32688	
4919	0	32756	
4920	0	32753	
4921	0	32736	
4922	0	32768	
4923	0	32768	
4924	0	32757	
4925	0	32800	
4926	0	32866	
4927	0	32848	
4928	0	32848	
4929	0	32864	
4930	0	32828	
4931	0	32824	
4932	0	32760	
4933	0	32721	
4934	0	32736	
4935	0	32704	
4936	0	32700	
4937	0	32712	
4938	0	32774	
4939	0	32770	
4940	0	32764	
4941	0	32748	
4942	0	32788	
4943	0	32844	
4944	0	32788	
4945	0	32768	
4946	0	32792	
4947	0	32780	
4948	0	32784	
4949	0	32860	
4950	0	32816	
4951	0	32748	
4952	0	32846	
4953	0	32768	
4954	0	32748	
4955	0	32784	
4956	0	32808	
4957	0	32760	
4958	0	32695	
4959	0	32820	
4960	0	32804	
4961	0	32772	
4962	0	32752	
4963	0	32836	
4964	0	32792	
4965	0	32788	
4966	0	32788	
4967	0	32796	
4968	0	32832	
4969	0	32832	
4970	0	32844	
4971	0	32792	
4972	0	32776	
4973	0	32748	
4974	0	32772	
4975	0	32772	
4976	0	32718	
4977	0	32740	
4978	0	32749	
4979	0	32800	
4980	0	32769	
4981	0	32812	
4982	0	32776	
4983	0	32794	
4984	0	32873	
4985	0	32788	
4986	0	32770	
4987	0	32788	
4988	0	32820	
4989	0	32837	
4990	0	32780	
4991	0	32808	
4992	0	32744	
4993	0	32772	
4994	0	32780	
4995	0	32777	
4996	0	32684	
4997	0	32752	
4998	0	32788	
4999	0	32748	
5000	0	32742	
5001	0	32764	
5002	0	32780	
5003	0	32816	
5004	0	32840	
5005	0	32768	
5006	0	32768	
5007	0	32868	
5008	0	32780	
5009	0	32828	
5010	0	32830	
5011	0	32820	
5012	0	32740	
5013	0	32708	
5014	0	32740	
5015	0	32740	
5016	0	32744	
5017	0	32694	
5018	0	32732	
5019	0	32824	
5020	0	32760	
5021	0	32806	
5022	0	32772	
5023	0	32866	
5024	0	32860	
5025	0	32800	
5026	0	32788	
5027	0	32772	
5028	0	32768	
5029	0	32836	
5030	0	32788	
5031	0	32796	
5032	0	32760	
5033	0	32732	
5034	0	32732	
5035	0	32780	
5036	0	32798	
5037	0	32720	
5038	0	32780	
5039	0	32704	
5040	0	32782	
5041	0	32766	
5042	0	32816	
5043	0	32764	
5044	0	32868	
5045	0	32744	
5046	0	32784	
5047	0	32768	
5048	0	32792	
5049	0	32804	
5050	0	32848	
5051	0	32792	
5052	0	32789	
5053	0	32740	
5054	0	32788	
5055	0	32745	
5056	0	32781	
5057	0	32704	
5058	0	32748	
5059	0	32804	
5060	0	32781	
5061	0	32796	
5062	0	32816	
5063	0	32796	
5064	0	32789	
5065	0	32752	
5066	0	32772	
5067	0	32802	
5068	0	32804	
5069	0	32800	
5070	0	32812	
5071	0	32784	
5072	0	32796	
5073	0	32754	
5074	0	32748	
5075	0	32757	
5076	0	32720	
5077	0	32738	
5078	0	32788	
5079	0	32848	
5080	0	32792	
5081	0	32765	
5082	0	32700	
5083	0	32840	
5084	0	32836	
5085	0	32772	
5086	0	32776	
5087	0	32796	
5088	0	32852	
5089	0	32772	
5090	0	32809	
5091	0	32805	
5092	0	32814	
5093	0	32808	
5094	0	32784	
5095	0	32804	
5096	0	32768	
5097	0	32712	
5098	0	32756	
5099	0	32696	
5100	0	32792	
5101	0	32804	
5102	0	32812	
5103	0	32800	
5104	0	32732	
5105	0	32740	
5106	0	32804	
5107	0	32816	
5108	0	32804	
5109	0	32828	
5110	0	32780	
5111	0	32872	
5112	0	32800	
5113	0	32737	
5114	0	32740	
5115	0	32728	
5116	0	32796	
5117	0	32726	
5118	0	32717	
5119	0	32762	
5120	0	32772	
5121	0	32756	
5122	0	32852	
5123	0	32777	
5124	0	32816	
5125	0	32852	
5126	0	32784	
5127	0	32812	
5128	0	32860	
5129	0	32772	
5130	0	32828	
5131	0	32848	
5132	0	32705	
5133	0	32764	
5134	0	32804	
5135	0	32774	
5136	0	32708	
5137	0	32732	
5138	0	32724	
5139	0	32768	
5140	0	32796	
5141	0	32796	
5142	0	32756	
5143	0	32804	
5144	0	32784	
5145	0	32784	
5146	0	32764	
5147	0	32808	
5148	0	32832	
5149	0	32844	
5150	0	32840	
5151	0	32828	
5152	0	32796	
5153	0	32770	
5154	0	32732	
5155	0	32725	
5156	0	32716	
5157	0	32797	
5158	0	32748	
5159	0	32756	
5160	0	32792	
5161	0	32749	
5162	0	32780	
5163	0	32799	
5164	0	32820	
5165	0	32796	
5166	0	32740	
5167	0	32848	
5168	0	32760	
5169	0	32772	
5170	0	32892	
5171	0	32844	
5172	0	32736	
5173	0	32728	
5174	0	32768	
5175	0	32740	
5176	0	32736	
5177	0	32736	
5178	0	32708	
5179	0	32793	
5180	0	32789	
5181	0	32792	
5182	0	32792	
5183	0	32744	
5184	0	32788	
5185	0	32822	
5186	0	32792	
5187	0	32849	
5188	0	32804	
5189	0	32764	
5190	0	32804	
5191	0	32872	
5192	0	32860	
5193	0	32692	
5194	0	32724	
5195	0	32751	
5196	0	32744	
5197	0	32724	
5198	0	32780	
5199	0	32808	
5200	0	32776	
5201	0	32761	
5202	0	32775	
5203	0	32824	
5204	0	32844	
5205	0	32860	
5206	0	32832	
5207	0	32716	
5208	0	32753	
5209	0	32790	
5210	0	32856	
5211	0	32840	
5212	0	32836	
5213	0	32764	
5214	0	32784	
5215	0	32712	
5216	0	32680	
5217	0	32728	
5218	0	32720	
5219	0	32776	
5220	0	32744	
5221	0	32776	
5222	0	32820	
5223	0	32932	
5224	0	32872	
5225	0	32728	
5226	0	32765	
5227	0	32700	
5228	0	32772	
5229	0	32800	
5230	0	32828	
5231	0	32876	
5232	0	32716	
5233	0	32804	
5234	0	32732	
5235	0	32752	
5236	0	32672	
5237	0	32689	
5238	0	32748	
5239	0	32764	
5240	0	32816	
5241	0	32748	
5242	0	32820	
5243	0	32896	
5244	0	32840	
5245	0	32776	
5246	0	32712	
5247	0	32733	
5248	0	32816	
5249	0	32904	
5250	0	32844	
5251	0	32724	
5252	0	32700	
5253	0	32788	
5254	0	32886	
5255	0	32780	
5256	0	32617	
5257	0	32608	
5258	0	32572	
5259	0	32670	
5260	0	32756	
5261	0	32804	
5262	0	32804	
5263	0	32876	
5264	0	32846	
5265	0	32744	
5266	0	32768	
5267	0	32736	
5268	0	32884	
5269	0	32880	
5270	0	32892	
5271	0	32824	
5272	0	32692	
5273	0	32661	
5274	0	32704	
5275	0	32600	
5276	0	32540	
5277	0	32736	
5278	0	33004	
5279	0	33032	
5280	0	32965	
5281	0	32800	
5282	0	33056	
5283	0	33050	
5284	0	32912	
5285	0	32776	
5286	0	32428	
5287	0	32262	
5288	0	32376	
5289	0	32804	
5290	0	32724	
5291	0	32656	
5292	0	32484	
5293	0	32292	
5294	0	32508	
5295	0	32832	
5296	0	32993	
5297	0	33280	
5298	0	33360	
5299	0	33431	
5300	0	33656	
5301	0	33368	
5302	0	33380	
5303	0	33437	
5304	0	32894	
5305	0	32408	
5306	0	32412	
5307	0	32446	
5308	0	32680	
5309	0	32655	
5310	0	32732	
5311	0	32560	
5312	0	32404	
5313	0	32384	
5314	0	32601	
5315	0	32533	
5316	0	32624	
5317	0	32444	
5318	0	32620	
5319	0	32972	
5320	0	32584	
5321	0	32436	
5322	0	32092	
5323	0	32016	
5324	0	32088	
5325	0	32096	
5326	0	31648	
5327	0	30764	
5328	0	30996	
5329	0	32141	
5330	0	34016	
5331	0	34416	
5332	0	33168	
5333	0	32364	
5334	0	32388	
5335	0	32840	
5336	0	33624	
5337	0	33980	
5338	0	32932	
5339	0	31020	
5340	0	31580	
5341	0	34220	
5342	0	34460	
5343	0	33068	
5344	0	27936	
5345	0	26512	
5346	0	29128	
5347	0	31660	
5348	0	32800	
5349	0	35392	
5350	0	37320	
5351	0	36020	
5352	0	35676	
5353	0	34564	
5354	0	33116	
5355	0	33796	
5356	0	33821	
5357	0	29644	
5358	0	29862	
5359	0	31649	
5360	0	33820	
5361	0	36364	
5362	0	37336	
5363	0	37600	
5364	0	37092	
5365	0	34138	
5366	0	33701	
5367	0	34010	
5368	0	32704	
5369	0	33624	
5370	0	33620	
5371	0	34284	
5372	0	34196	
5373	0	30996	
5374	0	30253	
5375	0	29436	
5376	0	29756	
5377	0	29156	
5378	0	28664	
5379	0	26236	
5380	0	27324	
5381	0	31364	
5382	0	34476	
5383	0	35716	
5384	0	36920	
5385	0	37784	
5386	0	38068	
5387	0	37776	
5388	0	37062	
5389	0	35300	
5390	0	35053	
5391	0	34152	
5392	0	30734	
5393	0	27161	
5394	0	26744	
5395	0	28780	
5396	0	29317	
5397	0	30644	
5398	0	30429	
5399	0	31492	
5400	0	34688	
5401	0	34640	
5402	0	34548	
5403	0	33704	
5404	0	34912	
5405	0	32628	
5406	0	25044	
5407	0	25472	
5408	0	28244	
5409	0	26824	
5410	0	23040	
5411	0	24684	
5412	0	29868	
5413	0	36244	
5414	0	40336	
5415	0	44352	
5416	0	46612	
5417	0	46382	
5418	0	45740	
5419	0	45668	
5420	0	43620	
5421	0	37420	
5422	0	32632	
5423	0	30800	
5424	0	28792	
5425	0	28212	
5426	0	25776	
5427	0	23572	
5428	0	19122	
5429	0	22116	
5430	0	27160	
5431	0	27600	
5432	0	29176	
5433	0	29057	
5434	0	30136	
5435	0	33064	
5436	0	36592	
5437	0	39912	
5438	0	41736	
5439	0	42764	
5440	0	42024	
5441	0	41016	
5442	0	40716	
5443	0	37808	
5444	0	35240	
5445	0	32316	
5446	0	30692	
5447	0	28676	
5448	0	28200	
5449	0	23388	
5450	0	19552	
5451	0	22186	
5452	0	25041	
5453	0	26945	
5454	0	26464	
5455	0	28192	
5456	0	30669	
5457	0	33732	
5458	0	35820	
5459	0	33484	
5460	0	36308	
5461	0	39644	
5462	0	40060	
5463	0	39744	
5464	0	38012	
5465	0	34400	
5466	0	34532	
5467	0	34520	
5468	0	29424	
5469	0	27132	
5470	0	29476	
5471	0	33248	
5472	0	36340	
5473	0	37180	
5474	0	35904	
5475	0	34888	
5476	0	36228	
5477	0	35429	
5478	0	35600	
5479	0	37640	
5480	0	37508	
5481	0	36868	
5482	0	35156	
5483	0	31492	
5484	0	26116	
5485	0	18500	
5486	0	13380	
5487	0	17580	
5488	0	25084	
5489	0	31532	
5490	0	37044	
5491	0	40192	
5492	0	41168	
5493	0	40008	
5494	0	41377	
5495	0	42740	
5496	0	42912	
5497	0	42337	
5498	0	38292	
5499	0	33636	
5500	0	28708	
5501	0	21061	
5502	0	20228	
5503	0	23620	
5504	0	24809	
5505	0	27052	
5506	0	27998	
5507	0	26836	
5508	0	30228	
5509	0	34769	
5510	0	37860	
5511	0	39388	
5512	0	36408	
5513	0	34660	
5514	0	33372	
5515	0	32968	
5516	0	31164	
5517	0	33592	
5518	0	35616	
5519	0	33784	
5520	0	28684	
5521	0	27768	
5522	0	31076	
5523	0	35404	
5524	0	37612	
5525	0	39020	
5526	0	40912	
5527	0	41376	
5528	0	37528	
5529	0	32944	
5530	0	31896	
5531	0	31480	
5532	0	29917	
5533	0	29268	
5534	0	30092	
5535	0	31620	
5536	0	30624	
5537	0	30400	
5538	0	29708	
5539	0	29900	
5540	0	28452	
5541	0	25848	
5542	0	27572	
5543	0	30292	
5544	0	28480	
5545	0	30560	
5546	0	35076	
5547	0	36220	
5548	0	37248	
5549	0	39512	
5550	0	39848	
5551	0	34084	
5552	0	29692	
5553	0	28472	
5554	0	31240	
5555	0	35084	
5556	0	36292	
5557	0	37125	
5558	0	37144	
5559	0	37356	
5560	0	38116	
5561	0	39580	
5562	0	39365	
5563	0	40164	
5564	0	38654	
5565	0	35712	
5566	0	31844	
5567	0	27285	
5568	0	22544	
5569	0	20808	
5570	0	19388	
5571	0	19384	
5572	0	21045	
5573	0	25345	
5574	0	27288	
5575	0	28988	
5576	0	32116	
5577	0	34488	
5578	0	36508	
5579	0	41884	
5580	0	45884	
5581	0	46312	
5582	0	46292	
5583	0	45644	
5584	0	44316	
5585	0	40164	
5586	0	35244	
5587	0	31424	
5588	0	30009	
5589	0	29144	
5590	0	27702	
5591	0	26468	
5592	0	26154	
5593	0	25741	
5594	0	26044	
5595	0	26680	
5596	0	25668	
5597	0	23716	
5598	0	24892	
5599	0	27085	
5600	0	28404	
5601	0	27804	
5602	0	26508	
5603	0	28378	
5604	0	32300	
5605	0	34980	
5606	0	35992	
5607	0	40348	
5608	0	41500	
5609	0	40500	
5610	0	40221	
5611	0	35504	
5612	0	36848	
5613	0	35508	
5614	0	33314	
5615	0	32604	
5616	0	33124	
5617	0	31860	
5618	0	33076	
5619	0	35764	
5620	0	38208	
5621	0	39068	
5622	0	41188	
5623	0	42004	
5624	0	41612	
5625	0	36428	
5626	0	32724	
5627	0	31628	
5628	0	27664	
5629	0	23630	
5630	0	23676	
5631	0	23285	
5632	0	24041	
5633	0	23608	
5634	0	22793	
5635	0	24777	
5636	0	28845	
5637	0	32464	
5638	0	36540	
5639	0	39032	
5640	0	39892	
5641	0	39742	
5642	0	39152	
5643	0	35276	
5644	0	28548	
5645	0	26072	
5646	0	29948	
5647	0	31528	
5648	0	29289	
5649	0	31504	
5650	0	34804	
5651	0	36564	
5652	0	37416	
5653	0	36656	
5654	0	37502	
5655	0	38484	
5656	0	39520	
5657	0	37004	
5658	0	34500	
5659	0	32236	
5660	0	30280	
5661	0	31936	
5662	0	33184	
5663	0	32357	
5664	0	31544	
5665	0	32632	
5666	0	33373	
5667	0	32072	
5668	0	32068	
5669	0	32868	
5670	0	32669	
5671	0	32812	
5672	0	30868	
5673	0	28658	
5674	0	27228	
5675	0	28760	
5676	0	30685	
5677	0	32092	
5678	0	33248	
5679	0	32916	
5680	0	32492	
5681	0	32348	
5682	0	29312	
5683	0	28392	
5684	0	30524	
5685	0	30300	
5686	0	28070	
5687	0	26945	
5688	0	27189	
5689	0	30500	
5690	0	32693	
5691	0	35156	
5692	0	31796	
5693	0	31648	
5694	0	37085	
5695	0	42432	
5696	0	43472	
5697	0	39973	
5698	0	38080	
5699	0	37732	
5700	0	36996	
5701	0	35276	
5702	0	32400	
5703	0	30969	
5704	0	33932	
5705	0	37752	
5706	0	40212	
5707	0	41076	
5708	0	36964	
5709	0	33756	
5710	0	32528	
5711	0	30984	
5712	0	29822	
5713	0	29592	
5714	0	28910	
5715	0	27557	
5716	0	27128	
5717	0	28469	
5718	0	28452	
5719	0	27364	
5720	0	27576	
5721	0	24724	
5722	0	22880	
5723	0	25237	
5724	0	24972	
5725	0	25590	
5726	0	29716	
5727	0	31712	
5728	0	31992	
5729	0	33721	
5730	0	35200	
5731	0	40224	
5732	0	44320	
5733	0	46720	
5734	0	46904	
5735	0	43248	
5736	0	41316	
5737	0	39852	
5738	0	35940	
5739	0	35042	
5740	0	33528	
5741	0	30112	
5742	0	29630	
5743	0	30898	
5744	0	30428	
5745	0	31044	
5746	0	32321	
5747	0	34204	
5748	0	33840	
5749	0	28533	
5750	0	24880	
5751	0	27556	
5752	0	30472	
5753	0	29976	
5754	0	27268	
5755	0	27856	
5756	0	29807	
5757	0	29672	
5758	0	30676	
5759	0	32484	
5760	0	34400	
5761	0	35044	
5762	0	36560	
5763	0	37036	
5764	0	35252	
5765	0	33420	
5766	0	30118	
5767	0	24928	
5768	0	25504	
5769	0	28716	
5770	0	31996	
5771	0	34316	
5772	0	36372	
5773	0	38460	
5774	0	39956	
5775	0	40916	
5776	0	41660	
5777	0	43080	
5778	0	43688	
5779	0	39788	
5780	0	34216	
5781	0	30520	
5782	0	27464	
5783	0	24436	
5784	0	23752	
5785	0	24738	
5786	0	24188	
5787	0	23900	
5788	0	26582	
5789	0	29496	
5790	0	33088	
5791	0	36324	
5792	0	37844	
5793	0	36664	
5794	0	36036	
5795	0	34868	
5796	0	34076	
5797	0	31616	
5798	0	29048	
5799	0	28232	
5800	0	28005	
5801	0	29188	
5802	0	32000	
5803	0	36660	
5804	0	37284	
5805	0	37936	
5806	0	39172	
5807	0	37397	
5808	0	36684	
5809	0	37600	
5810	0	30032	
5811	0	28648	
5812	0	29480	
5813	0	30404	
5814	0	31936	
5815	0	34148	
5816	0	36080	
5817	0	36044	
5818	0	35464	
5819	0	34776	
5820	0	35964	
5821	0	36117	
5822	0	34152	
5823	0	32441	
5824	0	30716	
5825	0	29408	
5826	0	30580	
5827	0	29332	
5828	0	28524	
5829	0	27788	
5830	0	27292	
5831	0	28400	
5832	0	29662	
5833	0	32680	
5834	0	33028	
5835	0	32916	
5836	0	33716	
5837	0	34724	
5838	0	35476	
5839	0	37136	
5840	0	37952	
5841	0	36864	
5842	0	34604	
5843	0	34020	
5844	0	31332	
5845	0	29236	
5846	0	27440	
5847	0	27905	
5848	0	28864	
5849	0	30613	
5850	0	31792	
5851	0	33848	
5852	0	35016	
5853	0	35624	
5854	0	37244	
5855	0	35362	
5856	0	31560	
5857	0	29928	
5858	0	30288	
5859	0	29437	
5860	0	29620	
5861	0	31444	
5862	0	33124	
5863	0	35300	
5864	0	37288	
5865	0	36874	
5866	0	36868	
5867	0	38516	
5868	0	36044	
5869	0	32668	
5870	0	31768	
5871	0	30712	
5872	0	31616	
5873	0	34752	
5874	0	35104	
5875	0	34132	
5876	0	31912	
5877	0	30276	
5878	0	28452	
5879	0	28405	
5880	0	29432	
5881	0	27500	
5882	0	26684	
5883	0	30540	
5884	0	34516	
5885	0	36509	
5886	0	38184	
5887	0	39932	
5888	0	40324	
5889	0	40056	
5890	0	38412	
5891	0	37300	
5892	0	36692	
5893	0	34896	
5894	0	31036	
5895	0	30156	
5896	0	28380	
5897	0	24934	
5898	0	23064	
5899	0	25577	
5900	0	29768	
5901	0	32088	
5902	0	32117	
5903	0	29740	
5904	0	27420	
5905	0	27168	
5906	0	27776	
5907	0	26912	
5908	0	28196	
5909	0	30580	
5910	0	31932	
5911	0	33348	
5912	0	34976	
5913	0	36772	
5914	0	39316	
5915	0	41844	
5916	0	43204	
5917	0	40804	
5918	0	39352	
5919	0	39701	
5920	0	39276	
5921	0	36884	
5922	0	32108	
5923	0	27344	
5924	0	27440	
5925	0	28880	
5926	0	30446	
5927	0	30748	
5928	0	31160	
5929	0	33736	
5930	0	34916	
5931	0	34596	
5932	0	32540	
5933	0	33216	
5934	0	32600	
5935	0	29476	
5936	0	29428	
5937	0	30680	
5938	0	32796	
5939	0	31744	
5940	0	30388	
5941	0	31468	
5942	0	34588	
5943	0	35464	
5944	0	33860	
5945	0	32708	
5946	0	31946	
5947	0	31436	
5948	0	31680	
5949	0	31492	
5950	0	32276	
5951	0	34452	
5952	0	35677	
5953	0	34568	
5954	0	33116	
5955	0	33557	
5956	0	34004	
5957	0	32480	
5958	0	31750	
5959	0	30372	
5960	0	29300	
5961	0	25904	
5962	0	27792	
5963	0	31481	
5964	0	34010	
5965	0	36822	
5966	0	38960	
5967	0	39164	
5968	0	37129	
5969	0	36753	
5970	0	37648	
5971	0	36908	
5972	0	38848	
5973	0	36440	
5974	0	31376	
5975	0	27904	
5976	0	30046	
5977	0	29096	
5978	0	25829	
5979	0	22856	
5980	0	23453	
5981	0	26756	
5982	0	29084	
5983	0	30489	
5984	0	31552	
5985	0	32916	
5986	0	32212	
5987	0	33173	
5988	0	30168	
5989	0	24557	
5990	0	28156	
5991	0	32636	
5992	0	35784	
5993	0	37317	
5994	0	40488	
5995	0	43104	
5996	0	43964	
5997	0	42980	
5998	0	42680	
5999	0	40468	
6000	0	38812	
6001	0	35828	
6002	0	32716	
6003	0	28400	
6004	0	26753	
6005	0	23708	
6006	0	22160	
6007	0	25256	
6008	0	28512	
6009	0	30432	
6010	0	31312	
6011	0	32244	
6012	0	35552	
6013	0	35732	
6014	0	37340	
6015	0	38008	
6016	0	37672	
6017	0	37294	
6018	0	34836	
6019	0	33521	
6020	0	33780	
6021	0	33688	
6022	0	32476	
6023	0	30984	
6024	0	24732	
6025	0	20352	
6026	0	21856	
6027	0	24700	
6028	0	29089	
6029	0	32376	
6030	0	34737	
6031	0	36792	
6032	0	39200	
6033	0	41392	
6034	0	40984	
6035	0	40540	
6036	0	37984	
6037	0	35300	
6038	0	32836	
6039	0	30464	
6040	0	28868	
6041	0	29660	
6042	0	30564	
6043	0	31296	
6044	0	32308	
6045	0	32856	
6046	0	34018	
6047	0	33976	
6048	0	33336	
6049	0	32552	
6050	0	30461	
6051	0	28384	
6052	0	29312	
6053	0	29317	
6054	0	28678	
6055	0	29312	
6056	0	29676	
6057	0	30264	
6058	0	31253	
6059	0	32620	
6060	0	36068	
6061	0	38676	
6062	0	38492	
6063	0	37152	
6064	0	36520	
6065	0	35460	
6066	0	35364	
6067	0	34888	
6068	0	34589	
6069	0	32040	
6070	0	29972	
6071	0	28364	
6072	0	27672	
6073	0	28536	
6074	0	30072	
6075	0	29886	
6076	0	28836	
6077	0	30108	
6078	0	32356	
6079	0	34464	
6080	0	35740	
6081	0	37924	
6082	0	40008	
6083	0	39974	
6084	0	38657	
6085	0	37260	
6086	0	36488	
6087	0	34972	
6088	0	32064	
6089	0	28878	
6090	0	27829	
6091	0	28632	
6092	0	29610	
6093	0	31420	
6094	0	33192	
6095	0	35192	
6096	0	35496	
6097	0	31624	
6098	0	28493	
6099	0	27716	
6100	0	28316	
6101	0	29360	
6102	0	31712	
6103	0	30880	
6104	0	29156	
6105	0	29776	
6106	0	32276	
6107	0	35876	
6108	0	39000	
6109	0	41062	
6110	0	39701	
6111	0	35710	
6112	0	33774	
6113	0	35504	
6114	0	35988	
6115	0	32792	
6116	0	31462	
6117	0	30540	
6118	0	29968	
6119	0	27856	
6120	0	27944	
6121	0	28756	
6122	0	32104	
6123	0	34920	
6124	0	35501	
6125	0	34724	
6126	0	32956	
6127	0	31944	
6128	0	33511	
6129	0	32880	
6130	0	32281	
6131	0	32820	
6132	0	33198	
6133	0	33700	
6134	0	33388	
6135	0	32632	
6136	0	31044	
6137	0	31968	
6138	0	33160	
6139	0	32328	
6140	0	33153	
6141	0	32308	
6142	0	32176	
6143	0	32620	
6144	0	32844	
6145	0	32200	
6146	0	29932	
6147	0	29668	
6148	0	31088	
6149	0	32065	
6150	0	32352	
6151	0	33716	
6152	0	34508	
6153	0	35444	
6154	0	36868	
6155	0	35492	
6156	0	34084	
6157	0	34324	
6158	0	33040	
6159	0	30636	
6160	0	29780	
6161	0	29196	
6162	0	29812	
6163	0	31876	
6164	0	32357	
6165	0	32876	
6166	0	35788	
6167	0	35984	
6168	0	34132	
6169	0	32688	
6170	0	34292	
6171	0	34348	
6172	0	34968	
6173	0	35420	
6174	0	35764	
6175	0	36280	
6176	0	34488	
6177	0	30432	
6178	0	27685	
6179	0	23888	
6180	0	24804	
6181	0	26900	
6182	0	29880	
6183	0	32964	
6184	0	35276	
6185	0	36784	
6186	0	36624	
6187	0	38708	
6188	0	41636	
6189	0	43040	
6190	0	42176	
6191	0	38076	
6192	0	34212	
6193	0	29748	
6194	0	25360	
6195	0	24873	
6196	0	24840	
6197	0	24756	
6198	0	25708	
6199	0	28121	
6200	0	29688	
6201	0	30108	
6202	0	29040	
6203	0	30196	
6204	0	31976	
6205	0	35112	
6206	0	38293	
6207	0	39116	
6208	0	38588	
6209	0	38292	
6210	0	36316	
6211	0	35620	
6212	0	35984	
6213	0	35904	
6214	0	32692	
6215	0	31032	
6216	0	28720	
6217	0	26026	
6218	0	24840	
6219	0	27124	
6220	0	28640	
6221	0	31440	
6222	0	34700	
6223	0	36800	
6224	0	39141	
6225	0	39048	
6226	0	38348	
6227	0	38184	
6228	0	37520	
6229	0	36134	
6230	0	35528	
6231	0	32972	
6232	0	28745	
6233	0	28248	
6234	0	29100	
6235	0	30132	
6236	0	29273	
6237	0	30100	
6238	0	31048	
6239	0	27552	
6240	0	23832	
6241	0	24866	
6242	0	26545	
6243	0	30484	
6244	0	35064	
6245	0	38596	
6246	0	41288	
6247	0	41864	
6248	0	41132	
6249	0	40237	
6250	0	40684	
6251	0	41312	
6252	0	37836	
6253	0	32420	
6254	0	28216	
6255	0	26724	
6256	0	27397	
6257	0	27580	
6258	0	27056	
6259	0	26368	
6260	0	27300	
6261	0	28964	
6262	0	27476	
6263	0	26908	
6264	0	29464	
6265	0	31090	
6266	0	33020	
6267	0	35308	
6268	0	37044	
6269	0	38144	
6270	0	38932	
6271	0	38052	
6272	0	35428	
6273	0	32296	
6274	0	31860	
6275	0	34356	
6276	0	33696	
6277	0	30944	
6278	0	31608	
6279	0	30692	
6280	0	31828	
6281	0	35172	
6282	0	38640	
6283	0	40796	
6284	0	41520	
6285	0	38968	
6286	0	36717	
6287	0	35016	
6288	0	33744	
6289	0	31340	
6290	0	30784	
6291	0	29952	
6292	0	27793	
6293	0	25320	
6294	0	25018	
6295	0	25908	
6296	0	28300	
6297	0	30334	
6298	0	31893	
6299	0	33888	
6300	0	34504	
6301	0	34292	
6302	0	34740	
6303	0	34592	
6304	0	33070	
6305	0	33121	
6306	0	33356	
6307	0	32884	
6308	0	33736	
6309	0	33820	
6310	0	30844	
6311	0	29080	
6312	0	29122	
6313	0	30336	
6314	0	32265	
6315	0	33600	
6316	0	33100	
6317	0	32644	
6318	0	31620	
6319	0	30440	
6320	0	30292	
6321	0	31460	
6322	0	32785	
6323	0	31872	
6324	0	31108	
6325	0	31684	
6326	0	30664	
6327	0	32052	
6328	0	34897	
6329	0	37328	
6330	0	38128	
6331	0	35860	
6332	0	35312	
6333	0	35660	
6334	0	33365	
6335	0	29705	
6336	0	30884	
6337	0	34336	
6338	0	35788	
6339	0	36652	
6340	0	38040	
6341	0	38401	
6342	0	38160	
6343	0	36748	
6344	0	36516	
6345	0	36712	
6346	0	33088	
6347	0	28744	
6348	0	27744	
6349	0	26744	
6350	0	24350	
6351	0	26272	
6352	0	29193	
6353	0	28760	
6354	0	29972	
6355	0	32558	
6356	0	33865	
6357	0	36470	
6358	0	37916	
6359	0	37736	
6360	0	37212	
6361	0	36644	
6362	0	33964	
6363	0	30988	
6364	0	29520	
6365	0	29888	
6366	0	30936	
6367	0	31820	
6368	0	31348	
6369	0	31577	
6370	0	33508	
6371	0	35172	
6372	0	33780	
6373	0	31620	
6374	0	30328	
6375	0	29510	
6376	0	30728	
6377	0	30478	
6378	0	31176	
6379	0	32780	
6380	0	33888	
6381	0	34476	
6382	0	34528	
6383	0	34796	
6384	0	35728	
6385	0	35648	
6386	0	34588	
6387	0	32856	
6388	0	30616	
6389	0	30188	
6390	0	31300	
6391	0	32176	
6392	0	31818	
6393	0	31242	
6394	0	30456	
6395	0	29708	
6396	0	29697	
6397	0	29280	
6398	0	29664	
6399	0	29701	
6400	0	30936	
6401	0	33224	
6402	0	34152	
6403	0	35340	
6404	0	36688	
6405	0	37688	
6406	0	38520	
6407	0	38420	
6408	0	38270	
6409	0	35920	
6410	0	33076	
6411	0	31320	
6412	0	29126	
6413	0	30004	
6414	0	31596	
6415	0	33188	
6416	0	34206	
6417	0	35396	
6418	0	35060	
6419	0	34784	
6420	0	34116	
6421	0	34940	
6422	0	34980	
6423	0	32836	
6424	0	31136	
6425	0	29536	
6426	0	29957	
6427	0	30332	
6428	0	30209	
6429	0	29864	
6430	0	29205	
6431	0	29340	
6432	0	30884	
6433	0	32488	
6434	0	33746	
6435	0	33828	
6436	0	33644	
6437	0	34092	
6438	0	34708	
6439	0	35116	
6440	0	36120	
6441	0	36460	
6442	0	35452	
6443	0	35036	
6444	0	33652	
6445	0	31192	
6446	0	30244	
6447	0	29996	
6448	0	29821	
6449	0	30330	
6450	0	31016	
6451	0	31716	
6452	0	31994	
6453	0	32004	
6454	0	32348	
6455	0	32652	
6456	0	32893	
6457	0	32596	
6458	0	32304	
6459	0	32184	
6460	0	31952	
6461	0	32052	
6462	0	32392	
6463	0	32824	
6464	0	32968	
6465	0	32600	
6466	0	30952	
6467	0	30220	
6468	0	29436	
6469	0	29278	
6470	0	29988	
6471	0	31781	
6472	0	33852	
6473	0	36141	
6474	0	38004	
6475	0	37472	
6476	0	37008	
6477	0	38264	
6478	0	39016	
6479	0	38100	
6480	0	37676	
6481	0	35680	
6482	0	33432	
6483	0	30540	
6484	0	29778	
6485	0	29703	
6486	0	31457	
6487	0	31932	
6488	0	30644	
6489	0	28284	
6490	0	28428	
6491	0	29696	
6492	0	31768	
6493	0	33996	
6494	0	34944	
6495	0	33988	
6496	0	34180	
6497	0	34860	
6498	0	35304	
6499	0	34404	
6500	0	34876	
6501	0	33596	
6502	0	32516	
6503	0	31862	
6504	0	31612	
6505	0	31716	
6506	0	30982	
6507	0	30544	
6508	0	30448	
6509	0	31700	
6510	0	32208	
6511	0	32302	
6512	0	32760	
6513	0	32964	
6514	0	33048	
6515	0	32440	
6516	0	31784	
6517	0	31825	
6518	0	32580	
6519	0	33154	
6520	0	33094	
6521	0	32821	
6522	0	32766	
6523	0	32710	
6524	0	32628	
6525	0	32825	
6526	0	32945	
6527	0	33080	
6528	0	33008	
6529	0	32788	
6530	0	32548	
6531	0	32548	
6532	0	32701	
6533	0	32856	
6534	0	32892	
6535	0	32800	
6536	0	32720	
6537	0	32781	
6538	0	33148	
6539	0	33584	
6540	0	32824	
6541	0	32376	
6542	0	32528	
6543	0	32708	
6544	0	32708	
6545	0	33196	
6546	0	33548	
6547	0	33312	
6548	0	32856	
6549	0	32476	
6550	0	32492	
6551	0	32548	
6552	0	32292	
6553	0	32328	
6554	0	32436	
6555	0	32664	
6556	0	33136	
6557	0	33360	
6558	0	33276	
6559	0	32981	
6560	0	33024	
6561	0	33204	
6562	0	33689	
6563	0	33928	
6564	0	33264	
6565	0	32920	
6566	0	32588	
6567	0	32332	
6568	0	32260	
6569	0	32436	
6570	0	32456	
6571	0	32373	
6572	0	32548	
6573	0	32520	
6574	0	32521	
6575	0	32516	
6576	0	32604	
6577	0	32661	
6578	0	32704	
6579	0	32828	
6580	0	32808	
6581	0	32984	
6582	0	32904	
6583	0	32736	
6584	0	32737	
6585	0	32704	
6586	0	32748	
6587	0	32704	
6588	0	32761	
6589	0	32792	
6590	0	32840	
6591	0	32793	
6592	0	32736	
6593	0	32751	
6594	0	32712	
6595	0	32840	
6596	0	32926	
6597	0	32992	
6598	0	32960	
6599	0	32826	
6600	0	32886	
6601	0	32968	
6602	0	32892	
6603	0	32861	
6604	0	32816	
6605	0	32732	
6606	0	32692	
6607	0	32688	
6608	0	32700	
6609	0	32604	
6610	0	32596	
6611	0	32697	
6612	0	32632	
6613	0	32648	
6614	0	32644	
6615	0	32936	
6616	0	32800	
6617	0	32876	
6618	0	32684	
6619	0	32740	
6620	0	32824	
6621	0	32776	
6622	0	32756	
6623	0	32900	
6624	0	32828	
6625	0	32940	
6626	0	32929	
6627	0	32908	
6628	0	32857	
6629	0	32932	
6630	0	32841	
6631	0	32781	
6632	0	32336	
6633	0	32068	
6634	0	32380	
6635	0	32749	
6636	0	32886	
6637	0	32818	
6638	0	32832	
6639	0	32852	
6640	0	32975	
6641	0	32868	
6642	0	32864	
6643	0	32912	
6644	0	32965	
6645	0	32920	
6646	0	32761	
6647	0	32804	
6648	0	32816	
6649	0	32788	
6650	0	32812	
6651	0	32896	
6652	0	32820	
6653	0	32768	
6654	0	32648	
6655	0	32676	
6656	0	32705	
6657	0	32708	
6658	0	32840	
6659	0	32868	
6660	0	32664	
6661	0	32524	
6662	0	32708	
6663	0	32736	
6664	0	32756	
6665	0	32828	
6666	0	32792	
6667	0	32756	
6668	0	32748	
6669	0	32736	
6670	0	32832	
6671	0	32848	
6672	0	32800	
6673	0	32770	
6674	0	32700	
6675	0	32752	
6676	0	32792	
6677	0	32764	
6678	0	32784	
6679	0	32872	
6680	0	32828	
6681	0	32858	
6682	0	32904	
6683	0	32840	
6684	0	32852	
6685	0	32920	
6686	0	32808	
6687	0	32828	
6688	0	32724	
6689	0	32804	
6690	0	32800	
6691	0	32792	
6692	0	32848	
6693	0	32796	
6694	0	32777	
6695	0	32720	
6696	0	32812	
6697	0	32717	
6698	0	32718	
6699	0	32725	
6700	0	32776	
6701	0	32724	
6702	0	32848	
6703	0	32770	
6704	0	32820	
6705	0	32816	
6706	0	32816	
6707	0	32817	
6708	0	32792	
6709	0	32864	
6710	0	32816	
6711	0	32696	
6712	0	32712	
6713	0	32686	
6714	0	32620	
6715	0	32684	
6716	0	32676	
6717	0	32844	
6718	0	32816	
6719	0	32868	
6720	0	32876	
6721	0	32672	
6722	0	32665	
6723	0	32716	
6724	0	32800	
6725	0	32832	
6726	0	32844	
6727	0	32686	
6728	0	32788	
6729	0	32820	
6730	0	32916	
6731	0	32972	
6732	0	32693	
6733	0	32680	
6734	0	32776	
6735	0	32880	
6736	0	32704	
6737	0	32596	
6738	0	32600	
6739	0	32820	
6740	0	32696	
6741	0	32892	
6742	0	32960	
6743	0	32932	
6744	0	32896	
6745	0	32740	
6746	0	32552	
6747	0	32616	
6748	0	32700	
6749	0	32768	
6750	0	32840	
6751	0	32928	
6752	0	32844	
6753	0	32774	
6754	0	32720	
6755	0	32741	
6756	0	32784	
6757	0	32772	
6758	0	32736	
6759	0	32756	
6760	0	32816	
6761	0	32776	
6762	0	32800	
6763	0	32808	
6764	0	32820	
6765	0	32804	
6766	0	32777	
6767	0	32796	
6768	0	32736	
6769	0	32740	
6770	0	32876	
6771	0	32884	
6772	0	32812	
6773	0	32720	
6774	0	32752	
6775	0	32744	
6776	0	32701	
6777	0	32734	
6778	0	32710	
6779	0	32740	
6780	0	32828	
6781	0	32774	
6782	0	32792	
6783	0	32760	
6784	0	32796	
6785	0	32808	
6786	0	32816	
6787	0	32836	
6788	0	32784	
6789	0	32816	
6790	0	32824	
6791	0	32800	
6792	0	32836	
6793	0	32776	
6794	0	32684	
6795	0	32716	
6796	0	32788	
6797	0	32784	
6798	0	32762	
6799	0	32764	
6800	0	32876	
6801	0	32743	
6802	0	32781	
6803	0	32870	
6804	0	32776	
6805	0	32812	
6806	0	32800	
6807	0	32784	
6808	0	32804	
6809	0	32728	
6810	0	32788	
6811	0	32724	
6812	0	32776	
6813	0	32640	
6814	0	32696	
6815	0	32748	
6816	0	32764	
6817	0	32848	
6818	0	32748	
6819	0	32780	
6820	0	32804	
6821	0	32844	
6822	0	32816	
6823	0	32760	
6824	0	32816	
6825	0	32860	
6826	0	32780	
6827	0	32744	
6828	0	32840	
6829	0	32804	
6830	0	32949	
6831	0	32844	
6832	0	32804	
6833	0	32620	
6834	0	32654	
6835	0	32473	
6836	0	32716	
6837	0	32889	
6838	0	32760	
6839	0	32775	
6840	0	32768	
6841	0	32756	
6842	0	32712	
6843	0	32812	
6844	0	32788	
6845	0	32780	
6846	0	32856	
6847	0	32829	
6848	0	32848	
6849	0	32888	
6850	0	32869	
6851	0	32850	
6852	0	32956	
6853	0	32904	
6854	0	32808	
6855	0	32762	
6856	0	32756	
6857	0	32700	
6858	0	32752	
6859	0	32744	
6860	0	32752	
6861	0	32604	
6862	0	32628	
6863	0	32676	
6864	0	32768	
6865	0	32824	
6866	0	32868	
6867	0	32828	
6868	0	32828	
6869	0	32876	
6870	0	32832	
6871	0	32752	
6872	0	32712	
6873	0	32812	
6874	0	32720	
6875	0	32752	
6876	0	32748	
6877	0	32772	
6878	0	32733	
6879	0	32728	
6880	0	32816	
6881	0	32840	
6882	0	32756	
6883	0	32736	
6884	0	32790	
6885	0	32830	
6886	0	32820	
6887	0	32814	
6888	0	32756	
6889	0	32794	
6890	0	32836	
6891	0	32812	
6892	0	32812	
6893	0	32753	
6894	0	32741	
6895	0	32740	
6896	0	32748	
6897	0	32738	
6898	0	32712	
6899	0	32668	
6900	0	32792	
6901	0	32817	
6902	0	32836	
6903	0	32820	
6904	0	32800	
6905	0	32768	
6906	0	32852	
6907	0	32788	
6908	0	32780	
6909	0	32800	
6910	0	32868	
6911	0	32820	
6912	0	32804	
6913	0	32676	
6914	0	32700	
6915	0	32738	
6916	0	32708	
6917	0	32748	
6918	0	32752	
6919	0	32840	
6920	0	32752	
6921	0	32780	
6922	0	32788	
6923	0	32788	
6924	0	32776	
6925	0	32804	
6926	0	32816	
6927	0	32844	
6928	0	32796	
6929	0	32784	
6930	0	32820	
6931	0	32862	
6932	0	32824	
6933	0	32809	
6934	0	32684	
6935	0	32832	
6936	0	32696	
6937	0	32684	
6938	0	32769	
6939	0	32764	
6940	0	32774	
6941	0	32856	
6942	0	32785	
6943	0	32752	
6944	0	32800	
6945	0	32832	
6946	0	32800	
6947	0	32788	
6948	0	32776	
6949	0	32796	
6950	0	32872	
6951	0	32788	
6952	0	32784	
6953	0	32796	
6954	0	32740	
6955	0	32724	
6956	0	32732	
6957	0	32687	
6958	0	32688	
6959	0	32775	
6960	0	32812	
6961	0	32808	
6962	0	32776	
6963	0	32757	
6964	0	32821	
6965	0	32832	
6966	0	32762	
6967	0	32829	
6968	0	32804	
6969	0	32764	
6970	0	32756	
6971	0	32814	
6972	0	32789	
6973	0	32792	
6974	0	32750	
6975	0	32800	
6976	0	32772	
6977	0	32712	
6978	0	32702	
6979	0	32792	
6980	0	32768	
6981	0	32784	
6982	0	32780	
6983	0	32825	
6984	0	32744	
6985	0	32767	
6986	0	32796	
6987	0	32796	
6988	0	32852	
6989	0	32860	
6990	0	32784	
6991	0	32784	
6992	0	32788	
6993	0	32740	
6994	0	32808	
6995	0	32724	
6996	0	32704	
6997	0	32680	
6998	0	32708	
6999	0	32720	
7000	0	32812	
7001	0	32852	
7002	0	32824	
7003	0	32760	
7004	0	32760	
7005	0	32780	
7006	0	32836	
7007	0	32832	
7008	0	32768	
7009	0	32828	
7010	0	32992	
7011	0	32772	
7012	0	32720	
7013	0	32712	
7014	0	32744	
7015	0	32700	
7016	0	32761	
7017	0	32784	
7018	0	32708	
7019	0	32748	
7020	0	32820	
7021	0	32792	
7022	0	32762	
7023	0	32800	
7024	0	32804	
7025	0	32856	
7026	0	32760	
7027	0	32812	
7028	0	32788	
7029	0	32762	
7030	0	32784	
7031	0	32828	
7032	0	32764	
7033	0	32720	
7034	0	32780	
7035	0	32744	
7036	0	32840	
7037	0	32768	
7038	0	32748	
7039	0	32752	
7040	0	32780	
7041	0	32776	
7042	0	32848	
7043	0	32821	
7044	0	32836	
7045	0	32840	
7046	0	32768	
7047	0	32800	
7048	0	32752	
7049	0	32760	
7050	0	32796	
7051	0	32814	
7052	0	32776	
7053	0	32756	
7054	0	32772	
7055	0	32784	
7056	0	32698	
7057	0	32740	
7058	0	32756	
7059	0	32704	
7060	0	32800	
7061	0	32776	
7062	0	32776	
7063	0	32752	
7064	0	32815	
7065	0	32780	
7066	0	32860	
7067	0	32752	
7068	0	32796	
7069	0	32772	
7070	0	32840	
7071	0	32772	
7072	0	32768	
7073	0	32733	
7074	0	32768	
7075	0	32756	
7076	0	32692	
7077	0	32726	
7078	0	32728	
7079	0	32806	
7080	0	32813	
7081	0	32712	
7082	0	32820	
7083	0	32728	
7084	0	32756	
7085	0	32840	
7086	0	32868	
7087	0	32828	
7088	0	32808	
7089	0	32832	
7090	0	32820	
7091	0	32760	
7092	0	32812	
7093	0	32822	
7094	0	32788	
7095	0	32766	
7096	0	32760	
7097	0	32736	
7098	0	32734	
7099	0	32737	
7100	0	32700	
7101	0	32776	
7102	0	32821	
7103	0	32828	
7104	0	32798	
7105	0	32764	
7106	0	32804	
7107	0	32792	
7108	0	32788	
7109	0	32716	
7110	0	32812	
7111	0	32832	
7112	0	32766	
7113	0	32804	
7114	0	32804	
7115	0	32764	
7116	0	32749	
7117	0	32752	
7118	0	32728	
7119	0	32724	
7120	0	32684	
7121	0	32756	
7122	0	32836	
7123	0	32792	
7124	0	32742	
7125	0	32728	
7126	0	32872	
7127	0	32828	
7128	0	32820	
7129	0	32780	
7130	0	32848	
7131	0	32804	
7132	0	32801	
7133	0	32696	
7134	0	32680	
7135	0	32694	
7136	0	32708	
7137	0	32752	
7138	0	32712	
7139	0	32796	
7140	0	32780	
7141	0	32798	
7142	0	32782	
7143	0	32800	
7144	0	32792	
7145	0	32829	
7146	0	32892	
7147	0	32789	
7148	0	32816	
7149	0	32808	
7150	0	32782	
7151	0	32796	
7152	0	32726	
7153	0	32848	
7154	0	32768	
7155	0	32704	
7156	0	32736	
7157	0	32721	
7158	0	32784	
7159	0	32736	
7160	0	32696	
7161	0	32780	
7162	0	32844	
7163	0	32852	
7164	0	32780	
7165	0	32764	
7166	0	32752	
7167	0	32780	
7168	0	32828	
7169	0	32824	
7170	0	32810	
7171	0	32852	
7172	0	32844	
7173	0	32801	
7174	0	32761	
7175	0	32732	
7176	0	32772	
7177	0	32764	
7178	0	32716	
7179	0	32740	
7180	0	32752	
7181	0	32800	
7182	0	32812	
7183	0	32792	
7184	0	32776	
7185	0	32852	
7186	0	32740	
7187	0	32804	
7188	0	32792	
7189	0	32760	
7190	0	32820	
7191	0	32800	
7192	0	32836	
7193	0	32744	
7194	0	32753	
7195	0	32696	
7196	0	32744	
7197	0	32712	
7198	0	32732	
7199	0	32760	
7200	0	32756	
7201	0	32744	
7202	0	32828	
7203	0	32785	
7204	0	32816	
7205	0	32820	
7206	0	32868	
7207	0	32773	
7208	0	32820	
7209	0	32800	
7210	0	32804	
7211	0	32735	
7212	0	32756	
7213	0	32725	
7214	0	32753	
7215	0	32753	
7216	0	32740	
7217	0	32752	
7218	0	32772	
7219	0	32768	
7220	0	32776	
7221	0	32780	
7222	0	32740	
7223	0	32760	
7224	0	32768	
7225	0	32768	
7226	0	32776	
7227	0	32828	
7228	0	32870	
7229	0	32780	
7230	0	32832	
7231	0	32766	
7232	0	32756	
7233	0	32792	
7234	0	32713	
7235	0	32684	
7236	0	32756	
7237	0	32792	
7238	0	32684	
7239	0	32740	
7240	0	32738	
7241	0	32751	
7242	0	32692	
7243	0	32808	
7244	0	32824	
7245	0	32852	
7246	0	32844	
7247	0	32828	
7248	0	32844	
7249	0	32874	
7250	0	32780	
7251	0	32844	
7252	0	32769	
7253	0	32800	
7254	0	32692	
7255	0	32801	
7256	0	32808	
7257	0	32700	
7258	0	32730	
7259	0	32768	
7260	0	32744	
7261	0	32821	
7262	0	32804	
7263	0	32816	
7264	0	32768	
7265	0	32800	
7266	0	32848	
7267	0	32728	
7268	0	32776	
7269	0	32800	
7270	0	32736	
7271	0	32828	
7272	0	32804	
7273	0	32744	
7274	0	32750	
7275	0	32756	
7276	0	32678	
7277	0	32596	
7278	0	32716	
7279	0	32680	
7280	0	32736	
7281	0	32740	
7282	0	32724	
7283	0	32716	
7284	0	32822	
7285	0	32768	
7286	0	32752	
7287	0	32801	
7288	0	32748	
7289	0	32788	
7290	0	32816	
7291	0	32812	
7292	0	32772	
7293	0	32832	
7294	0	32762	
7295	0	32824	
7296	0	32828	
7297	0	32870	
7298	0	32776	
7299	0	32805	
7300	0	32872	
7301	0	32860	
7302	0	32836	
7303	0	32830	
7304	0	32836	
7305	0	32776	
7306	0	32900	
7307	0	32868	
7308	0	32740	
7309	0	32792	
7310	0	32820	
7311	0	32801	
7312	0	32865	
7313	0	32768	
7314	0	32816	
7315	0	32756	
7316	0	32796	
7317	0	32714	
7318	0	32728	
7319	0	32732	
7320	0	32840	
7321	0	32788	
7322	0	32764	
7323	0	32789	
7324	0	32782	
7325	0	32829	
7326	0	32773	
7327	0	32759	
7328	0	32784	
7329	0	32789	
7330	0	32812	
7331	0	32860	
7332	0	32852	
7333	0	32689	
7334	0	32806	
7335	0	32750	
7336	0	32752	
7337	0	32700	
7338	0	32716	
7339	0	32757	
7340	0	32753	
7341	0	32786	
7342	0	32732	
7343	0	32756	
7344	0	32844	
7345	0	32792	
7346	0	32804	
7347	0	32792	
7348	0	32772	
7349	0	32788	
7350	0	32864	
7351	0	32869	
7352	0	32760	
7353	0	32728	
7354	0	32824	
7355	0	32796	
7356	0	32740	
7357	0	32716	
7358	0	32708	
7359	0	32708	
7360	0	32764	
7361	0	32744	
7362	0	32808	
7363	0	32776	
7364	0	32812	
7365	0	32828	
7366	0	32812	
7367	0	32784	
7368	0	32857	
7369	0	32828	
7370	0	32816	
7371	0	32836	
7372	0	32784	
7373	0	32708	
7374	0	32716	
7375	0	32712	
7376	0	32757	
7377	0	32736	
7378	0	32752	
7379	0	32790	
7380	0	32796	
7381	0	32724	
7382	0	32820	
7383	0	32760	
7384	0	32792	
7385	0	32810	
7386	0	32877	
7387	0	32804	
7388	0	32736	
7389	0	32788	
7390	0	32772	
7391	0	32900	
7392	0	32724	
7393	0	32748	
7394	0	32720	
7395	0	32748	
7396	0	32716	
7397	0	32762	
7398	0	32720	
7399	0	32748	
7400	0	32813	
7401	0	32812	
7402	0	32788	
7403	0	32793	
7404	0	32838	
7405	0	32729	
7406	0	32868	
7407	0	32800	
7408	0	32877	
7409	0	32808	
7410	0	32800	
7411	0	32812	
7412	0	32796	
7413	0	32780	
7414	0	32760	
7415	0	32780	
7416	0	32676	
7417	0	32692	
7418	0	32692	
7419	0	32748	
7420	0	32780	
7421	0	32784	
7422	0	32816	
7423	0	32764	
7424	0	32780	
7425	0	32828	
7426	0	32772	
7427	0	32796	
7428	0	32745	
7429	0	32784	
7430	0	32805	
7431	0	32756	
7432	0	32804	
7433	0	32752	
7434	0	32748	
7435	0	32772	
7436	0	32738	
7437	0	32700	
7438	0	32752	
7439	0	32734	
7440	0	32832	
7441	0	32788	
7442	0	32768	
7443	0	32704	
7444	0	32828	
7445	0	32860	
7446	0	32780	
7447	0	32808	
7448	0	32840	
7449	0	32792	
7450	0	32852	
7451	0	32838	
7452	0	32804	
7453	0	32752	
7454	0	32802	
7455	0	32716	
7456	0	32768	
7457	0	32744	
7458	0	32692	
7459	0	32780	
7460	0	32756	
7461	0	32752	
7462	0	32800	
7463	0	32732	
7464	0	32804	
7465	0	32762	
7466	0	32816	
7467	0	32800	
7468	0	32848	
7469	0	32796	
7470	0	32796	
7471	0	32768	
7472	0	32814	
7473	0	32768	
7474	0	32684	
7475	0	32780	
7476	0	32732	
7477	0	32720	
7478	0	32727	
7479	0	32709	
7480	0	32780	
7481	0	32800	
7482	0	32808	
7483	0	32776	
7484	0	32822	
7485	0	32812	
7486	0	32776	
7487	0	32792	
7488	0	32780	
7489	0	32796	
7490	0	32776	
7491	0	32812	
7492	0	32804	
7493	0	32756	
7494	0	32808	
7495	0	32772	
7496	0	32686	
7497	0	32705	
7498	0	32756	
7499	0	32764	
7500	0	32776	
7501	0	32816	
7502	0	32781	
7503	0	32753	
7504	0	32828	
7505	0	32820	
7506	0	32760	
7507	0	32780	
7508	0	32732	
7509	0	32785	
7510	0	32880	
7511	0	32816	
7512	0	32772	
7513	0	32736	
7514	0	32800	
7515	0	32752	
7516	0	32780	
7517	0	32724	
7518	0	32732	
7519	0	32823	
7520	0	32776	
7521	0	32752	
7522	0	32740	
7523	0	32744	
7524	0	32828	
7525	0	32856	
7526	0	32812	
7527	0	32784	
7528	0	32789	
7529	0	32768	
7530	0	32788	
7531	0	32792	
7532	0	32780	
7533	0	32840	
7534	0	32692	
7535	0	32732	
7536	0	32712	
7537	0	32774	
7538	0	32766	
7539	0	32680	
7540	0	32756	
7541	0	32752	
7542	0	32748	
7543	0	32776	
7544	0	32820	
7545	0	32864	
7546	0	32848	
7547	0	32784	
7548	0	32868	
7549	0	32749	
7550	0	32768	
7551	0	32792	
7552	0	32776	
7553	0	32864	
7554	0	32748	
7555	0	32801	
7556	0	32812	
7557	0	32732	
7558	0	32668	
7559	0	32728	
7560	0	32760	
7561	0	32709	
7562	0	32772	
7563	0	32769	
7564	0	32804	
7565	0	32878	
7566	0	32800	
7567	0	32876	
7568	0	32840	
7569	0	32792	
7570	0	32844	
7571	0	32780	
7572	0	32848	
7573	0	32808	
7574	0	32782	
7575	0	32748	
7576	0	32732	
7577	0	32720	
7578	0	32749	
7579	0	32740	
7580	0	32736	
7581	0	32748	
7582	0	32796	
7583	0	32774	
7584	0	32752	
7585	0	32820	
7586	0	32860	
7587	0	32745	
7588	0	32796	
7589	0	32784	
7590	0	32791	
7591	0	32804	
7592	0	32708	
7593	0	32816	
7594	0	32768	
7595	0	32701	
7596	0	32768	
7597	0	32732	
7598	0	32716	
7599	0	32793	
7600	0	32712	
7601	0	32808	
7602	0	32808	
7603	0	32845	
7604	0	32808	
7605	0	32848	
7606	0	32860	
7607	0	32824	
7608	0	32740	
7609	0	32765	
7610	0	32776	
7611	0	32820	
7612	0	32774	
7613	0	32820	
7614	0	32792	
7615	0	32736	
7616	0	32677	
7617	0	32692	
7618	0	32756	
7619	0	32708	
7620	0	32828	
7621	0	32804	
7622	0	32809	
7623	0	32804	
7624	0	32768	
7625	0	32824	
7626	0	32828	
7627	0	32764	
7628	0	32764	
7629	0	32792	
7630	0	32848	
7631	0	32820	
7632	0	32822	
7633	0	32740	
7634	0	32765	
7635	0	32752	
7636	0	32674	
7637	0	32743	
7638	0	32764	
7639	0	32744	
7640	0	32752	
7641	0	32761	
7642	0	32848	
7643	0	32756	
7644	0	32812	
7645	0	32864	
7646	0	32768	
7647	0	32820	
7648	0	32848	
7649	0	32760	
7650	0	32830	
7651	0	32896	
7652	0	32832	
7653	0	32720	
7654	0	32748	
7655	0	32800	
7656	0	32733	
7657	0	32760	
7658	0	32736	
7659	0	32760	
7660	0	32756	
7661	0	32748	
7662	0	32800	
7663	0	32788	
7664	0	32776	
7665	0	32796	
7666	0	32828	
7667	0	32796	
7668	0	32797	
7669	0	32766	
7670	0	32844	
7671	0	32852	
7672	0	32792	
7673	0	32828	
7674	0	32869	
7675	0	32792	
7676	0	32711	
7677	0	32768	
7678	0	32713	
7679	0	32712	
7680	0	32732	
7681	0	32788	
7682	0	32740	
7683	0	32800	
7684	0	32812	
7685	0	32868	
7686	0	32832	
7687	0	32808	
7688	0	32788	
7689	0	32750	
7690	0	32776	
7691	0	32820	
7692	0	32798	
7693	0	32788	
7694	0	32740	
7695	0	32748	
7696	0	32768	
7697	0	32684	
7698	0	32752	
7699	0	32752	
7700	0	32812	
7701	0	32788	
7702	0	32828	
7703	0	32756	
7704	0	32820	
7705	0	32788	
7706	0	32828	
7707	0	32693	
7708	0	32812	
7709	0	32860	
7710	0	32804	
7711	0	32808	
7712	0	32812	
7713	0	32789	
7714	0	32726	
7715	0	32789	
7716	0	32741	
7717	0	32716	
7718	0	32772	
7719	0	32772	
7720	0	32812	
7721	0	32737	
7722	0	32728	
7723	0	32764	
7724	0	32788	
7725	0	32805	
7726	0	32744	
7727	0	32808	
7728	0	32752	
7729	0	32820	
7730	0	32816	
7731	0	32824	
7732	0	32821	
7733	0	32800	
7734	0	32736	
7735	0	32764	
7736	0	32732	
7737	0	32660	
7738	0	32736	
7739	0	32728	
7740	0	32788	
7741	0	32804	
7742	0	32816	
7743	0	32766	
7744	0	32768	
7745	0	32820	
7746	0	32813	
7747	0	32808	
7748	0	32772	
7749	0	32820	
7750	0	32780	
7751	0	32876	
7752	0	32820	
7753	0	32720	
7754	0	32788	
7755	0	32718	
7756	0	32752	
7757	0	32772	
7758	0	32748	
7759	0	32784	
7760	0	32764	
7761	0	32780	
7762	0	32732	
7763	0	32840	
7764	0	32764	
7765	0	32777	
7766	0	32835	
7767	0	32799	
7768	0	32740	
7769	0	32868	
7770	0	32804	
7771	0	32796	
7772	0	32812	
7773	0	32784	
7774	0	32700	
7775	0	32832	
7776	0	32760	
7777	0	32748	
7778	0	32676	
7779	0	32740	
7780	0	32764	
7781	0	32800	
7782	0	32796	
7783	0	32816	
7784	0	32856	
7785	0	32838	
7786	0	32804	
7787	0	32800	
7788	0	32796	
7789	0	32812	
7790	0	32800	
7791	0	32844	
7792	0	32852	
7793	0	32809	
7794	0	32720	
7795	0	32765	
7796	0	32756	
7797	0	32724	
7798	0	32692	
7799	0	32768	
7800	0	32772	
7801	0	32768	
7802	0	32788	
7803	0	32744	
7804	0	32784	
7805	0	32832	
7806	0	32828	
7807	0	32844	
7808	0	32832	
7809	0	32756	
7810	0	32760	
7811	0	32832	
7812	0	32744	
7813	0	32796	
7814	0	32736	
7815	0	32760	
7816	0	32796	
7817	0	32828	
7818	0	32684	
7819	0	32788	
7820	0	32775	
7821	0	32726	
7822	0	32752	
7823	0	32772	
7824	0	32804	
7825	0	32800	
7826	0	32772	
7827	0	32820	
7828	0	32807	
7829	0	32840	
7830	0	32796	
7831	0	32836	
7832	0	32774	
7833	0	32784	
7834	0	32778	
7835	0	32796	
7836	0	32752	
7837	0	32692	
7838	0	32764	
7839	0	32692	
7840	0	32776	
7841	0	32728	
7842	0	32840	
7843	0	32798	
7844	0	32808	
7845	0	32804	
7846	0	32816	
7847	0	32704	
7848	0	32834	
7849	0	32856	
7850	0	32824	
7851	0	32892	
7852	0	32860	
7853	0	32720	
7854	0	32740	
7855	0	32704	
7856	0	32768	
7857	0	32704	
7858	0	32708	
7859	0	32740	
7860	0	32786	
7861	0	32720	
7862	0	32818	
7863	0	32770	
7864	0	32800	
7865	0	32796	
7866	0	32772	
7867	0	32800	
7868	0	32832	
7869	0	32796	
7870	0	32784	
7871	0	32798	
7872	0	32840	
7873	0	32765	
7874	0	32740	
7875	0	32692	
7876	0	32740	
7877	0	32748	
7878	0	32720	
7879	0	32785	
7880	0	32760	
7881	0	32728	
7882	0	32845	
7883	0	32848	
7884	0	32796	
7885	0	32764	
7886	0	32800	
7887	0	32796	
7888	0	32757	
7889	0	32764	
7890	0	32908	
7891	0	32792	
7892	0	32793	
7893	0	32776	
7894	0	32732	
7895	0	32672	
7896	0	32696	
7897	0	32696	
7898	0	32712	
7899	0	32776	
7900	0	32756	
7901	0	32732	
7902	0	32780	
7903	0	32736	
7904	0	32740	
7905	0	32772	
7906	0	32768	
7907	0	32748	
7908	0	32760	
7909	0	32796	
7910	0	32724	
7911	0	32766	
7912	0	32765	
7913	0	32792	
7914	0	32724	
7915	0	32756	
7916	0	32726	
7917	0	32732	
7918	0	32736	
7919	0	32828	
7920	0	32860	
7921	0	32908	
7922	0	32836	
7923	0	32816	
7924	0	32900	
7925	0	32830	
7926	0	32848	
7927	0	32840	
7928	0	32804	
7929	0	32800	
7930	0	32816	
7931	0	32893	
7932	0	32740	
7933	0	32782	
7934	0	32764	
7935	0	32765	
7936	0	32808	
7937	0	32762	
7938	0	32781	
7939	0	32768	
7940	0	32704	
7941	0	32736	
7942	0	32732	
7943	0	32816	
7944	0	32764	
7945	0	32736	
7946	0	32792	
7947	0	32800	
7948	0	32764	
7949	0	32772	
7950	0	32821	
7951	0	32856	
7952	0	32860	
7953	0	32724	
7954	0	32732	
7955	0	32765	
7956	0	32732	
7957	0	32741	
7958	0	32660	
7959	0	32688	
7960	0	32760	
7961	0	32744	
7962	0	32757	
7963	0	32780	
7964	0	32812	
7965	0	32850	
7966	0	32784	
7967	0	32772	
7968	0	32792	
7969	0	32809	
7970	0	32812	
7971	0	32800	
7972	0	32768	
7973	0	32776	
7974	0	32720	
7975	0	32784	
7976	0	32756	
7977	0	32782	
7978	0	32758	
7979	0	32688	
7980	0	32804	
7981	0	32820	
7982	0	32784	
7983	0	32792	
7984	0	32748	
7985	0	32844	
7986	0	32872	
7987	0	32828	
7988	0	32748	
7989	0	32759	
7990	0	32777	
7991	0	32800	
7992	0	32808	
7993	0	32776	
7994	0	32780	
7995	0	32776	
7996	0	32692	
7997	0	32768	
7998	0	32716	
7999	0	32780	
8000	0	32740	
8001	0	32728	
8002	0	32740	
8003	0	32788	
8004	0	32806	
8005	0	32823	
8006	0	32844	
8007	0	32820	
8008	0	32844	
8009	0	32814	
8010	0	32824	
8011	0	32816	
8012	0	32824	
8013	0	32780	
8014	0	32756	
8015	0	32784	
8016	0	32806	
8017	0	32750	
8018	0	32684	
8019	0	32729	
8020	0	32812	
8021	0	32772	
8022	0	32772	
8023	0	32796	
8024	0	32820	
8025	0	32869	
8026	0	32756	
8027	0	32852	
8028	0	32800	
8029	0	32740	
8030	0	32789	
8031	0	32860	
8032	0	32860	
8033	0	32756	
8034	0	32768	
8035	0	32756	
8036	0	32768	
8037	0	32836	
8038	0	32684	
8039	0	32728	
8040	0	32788	
8041	0	32760	
8042	0	32772	
8043	0	32808	
8044	0	32846	
8045	0	32816	
8046	0	32800	
8047	0	32808	
8048	0	32804	
8049	0	32752	
8050	0	32852	
8051	0	32834	
8052	0	32736	
8053	0	32820	
8054	0	32736	
8055	0	32740	
8056	0	32764	
8057	0	32680	
8058	0	32761	
8059	0	32708	
8060	0	32765	
8061	0	32760	
8062	0	32775	
8063	0	32792	
8064	0	32772	
8065	0	32845	
8066	0	32845	
8067	0	32816	
8068	0	32820	
8069	0	32736	
8070	0	32724	
8071	0	32864	
8072	0	32856	
8073	0	32792	
8074	0	32776	
8075	0	32784	
8076	0	32760	
8077	0	32752	
8078	0	32660	
8079	0	32788	
8080	0	32776	
8081	0	32718	
8082	0	32832	
8083	0	32774	
8084	0	32820	
8085	0	32848	
8086	0	32750	
8087	0	32822	
8088	0	32816	
8089	0	32778	
8090	0	32784	
8091	0	32812	
8092	0	32848	
8093	0	32844	
8094	0	32748	
8095	0	32744	
8096	0	32788	
8097	0	32716	
8098	0	32737	
8099	0	32768	
8100	0	32788	
8101	0	32720	
8102	0	32808	
8103	0	32724	
8104	0	32769	
8105	0	32780	
8106	0	32808	
8107	0	32800	
8108	0	32844	
8109	0	32816	
8110	0	32804	
8111	0	32853	
8112	0	32780	
8113	0	32808	
8114	0	32696	
8115	0	32730	
8116	0	32692	
8117	0	32721	
8118	0	32736	
8119	0	32753	
8120	0	32772	
8121	0	32812	
8122	0	32841	
8123	0	32784	
8124	0	32844	
8125	0	32832	
8126	0	32840	
8127	0	32792	
8128	0	32764	
8129	0	32806	
8130	0	32780	
8131	0	32804	
8132	0	32788	
8133	0	32776	
8134	0	32776	
8135	0	32756	
8136	0	32700	
8137	0	32780	
8138	0	32700	
8139	0	32724	
8140	0	32728	
8141	0	32752	
8142	0	32781	
8143	0	32789	
8144	0	32870	
8145	0	32864	
8146	0	32876	
8147	0	32804	
8148	0	32820	
8149	0	32800	
8150	0	32776	
8151	0	32764	
8152	0	32793	
8153	0	32788	
8154	0	32764	
8155	0	32717	
8156	0	32700	
8157	0	32757	
8158	0	32764	
8159	0	32708	
8160	0	32768	
8161	0	32800	
8162	0	32736	
8163	0	32840	
8164	0	32748	
8165	0	32820	
8166	0	32828	
8167	0	32784	
8168	0	32772	
8169	0	32802	
8170	0	32816	
8171	0	32844	
8172	0	32817	
8173	0	32745	
8174	0	32740	
8175	0	32768	
8176	0	32752	
8177	0	32696	
8178	0	32792	
8179	0	32684	
8180	0	32757	
8181	0	32728	
8182	0	32798	
8183	0	32790	
8184	0	32856	
8185	0	32806	
8186	0	32820	
8187	0	32796	
8188	0	32741	
8189	0	32796	
8190	0	32844	
8191	0	32836	
8192	0	32800	
8193	0	32805	
8194	0	32772	
8195	0	32777	
8196	0	32760	
8197	0	32718	
8198	0	32752	
8199	0	32765	
8200	0	32736	
8201	0	32733	
8202	0	32712	
8203	0	32792	
8204	0	32808	
8205	0	32812	
8206	0	32752	
8207	0	32780	
8208	0	32798	
8209	0	32820	
8210	0	32824	
8211	0	32892	
8212	0	32796	
8213	0	32756	
8214	0	32728	
8215	0	32732	
8216	0	32716	
8217	0	32780	
8218	0	32804	
8219	0	32793	
8220	0	32772	
8221	0	32736	
8222	0	32774	
8223	0	32788	
8224	0	32848	
8225	0	32817	
8226	0	32832	
8227	0	32808	
8228	0	32793	
8229	0	32772	
8230	0	32844	
8231	0	32824	
8232	0	32812	
8233	0	32696	
8234	0	32732	
8235	0	32724	
8236	0	32692	
8237	0	32724	
8238	0	32698	
8239	0	32712	
8240	0	32820	
8241	0	32821	
8242	0	32796	
8243	0	32868	
8244	0	32820	
8245	0	32808	
8246	0	32768	
8247	0	32756	
8248	0	32800	
8249	0	32788	
8250	0	32869	
8251	0	32880	
8252	0	32804	
8253	0	32763	
8254	0	32788	
8255	0	32770	
8256	0	32728	
8257	0	32700	
8258	0	32696	
8259	0	32732	
8260	0	32772	
8261	0	32744	
8262	0	32836	
8263	0	32756	
8264	0	32780	
8265	0	32812	
8266	0	32812	
8267	0	32808	
8268	0	32824	
8269	0	32796	
8270	0	32805	
8271	0	32804	
8272	0	32788	
8273	0	32820	
8274	0	32782	
8275	0	32740	
8276	0	32720	
8277	0	32716	
8278	0	32708	
8279	0	32712	
8280	0	32732	
8281	0	32750	
8282	0	32768	
8283	0	32844	
8284	0	32823	
8285	0	32790	
8286	0	32792	
8287	0	32805	
8288	0	32764	
8289	0	32836	
8290	0	32824	
8291	0	32788	
8292	0	32764	
8293	0	32774	
8294	0	32716	
8295	0	32708	
8296	0	32712	
8297	0	32728	
8298	0	32704	
8299	0	32782	
8300	0	32792	
8301	0	32788	
8302	0	32824	
8303	0	32756	
8304	0	32852	
8305	0	32764	
8306	0	32821	
8307	0	32814	
8308	0	32860	
8309	0	32788	
8310	0	32784	
8311	0	32852	
8312	0	32832	
8313	0	32792	
8314	0	32725	
8315	0	32776	
8316	0	32768	
8317	0	32645	
8318	0	32700	
8319	0	32792	
8320	0	32728	
8321	0	32796	
8322	0	32780	
8323	0	32820	
8324	0	32808	
8325	0	32825	
8326	0	32832	
8327	0	32816	
8328	0	32756	
8329	0	32736	
8330	0	32840	
8331	0	32873	
8332	0	32733	
8333	0	32712	
8334	0	32768	
8335	0	32744	
8336	0	32796	
8337	0	32764	
8338	0	32712	
8339	0	32744	
8340	0	32740	
8341	0	32740	
8342	0	32756	
8343	0	32775	
8344	0	32768	
8345	0	32848	
8346	0	32748	
8347	0	32800	
8348	0	32780	
8349	0	32804	
8350	0	32764	
8351	0	32832	
8352	0	32828	
8353	0	32740	
8354	0	32724	
8355	0	32772	
8356	0	32745	
8357	0	32769	
8358	0	32752	
8359	0	32736	
8360	0	32780	
8361	0	32772	
8362	0	32832	
8363	0	32812	
8364	0	32864	
8365	0	32764	
8366	0	32788	
8367	0	32840	
8368	0	32769	
8369	0	32844	
8370	0	32788	
8371	0	32804	
8372	0	32832	
8373	0	32764	
8374	0	32712	
8375	0	32740	
8376	0	32734	
8377	0	32726	
8378	0	32716	
8379	0	32780	
8380	0	32868	
8381	0	32772	
8382	0	32760	
8383	0	32796	
8384	0	32816	
8385	0	32792	
8386	0	32840	
8387	0	32760	
8388	0	32756	
8389	0	32743	
8390	0	32818	
8391	0	32828	
8392	0	32836	
8393	0	32804	
8394	0	32796	
8395	0	32768	
8396	0	32684	
8397	0	32744	
8398	0	32740	
8399	0	32744	
8400	0	32824	
8401	0	32760	
8402	0	32772	
8403	0	32820	
8404	0	32768	
8405	0	32724	
8406	0	32824	
8407	0	32764	
8408	0	32783	
8409	0	32822	
8410	0	32864	
8411	0	32836	
8412	0	32796	
8413	0	32740	
8414	0	32801	
8415	0	32792	
8416	0	32752	
8417	0	32827	
8418	0	32648	
8419	0	32732	
8420	0	32756	
8421	0	32805	
8422	0	32864	
8423	0	32796	
8424	0	32816	
8425	0	32852	
8426	0	32800	
8427	0	32768	
8428	0	32824	
8429	0	32780	
8430	0	32764	
8431	0	32821	
8432	0	32824	
8433	0	32756	
8434	0	32748	
8435	0	32728	
8436	0	32768	
8437	0	32752	
8438	0	32772	
8439	0	32748	
8440	0	32784	
8441	0	32844	
8442	0	32828	
8443	0	32796	
8444	0	32796	
8445	0	32804	
8446	0	32812	
8447	0	32764	
8448	0	32860	
8449	0	32744	
8450	0	32804	
8451	0	32812	
8452	0	32772	
8453	0	32733	
8454	0	32836	
8455	0	32748	
8456	0	32700	
8457	0	32732	
8458	0	32740	
8459	0	32748	
8460	0	32756	
8461	0	32796	
8462	0	32760	
8463	0	32788	
8464	0	32800	
8465	0	32828	
8466	0	32780	
8467	0	32888	
8468	0	32800	
8469	0	32876	
8470	0	32804	
8471	0	32820	
8472	0	32796	
8473	0	32756	
8474	0	32768	
8475	0	32728	
8476	0	32816	
8477	0	32756	
8478	0	32748	
8479	0	32780	
8480	0	32764	
8481	0	32749	
8482	0	32760	
8483	0	32796	
8484	0	32821	
8485	0	32812	
8486	0	32768	
8487	0	32820	
8488	0	32770	
8489	0	32760	
8490	0	32828	
8491	0	32804	
8492	0	32894	
8493	0	32868	
8494	0	32808	
8495	0	32741	
8496	0	32712	
8497	0	32697	
8498	0	32724	
8499	0	32749	
8500	0	32782	
8501	0	32774	
8502	0	32728	
8503	0	32820	
8504	0	32804	
8505	0	32816	
8506	0	32776	
8507	0	32781	
8508	0	32776	
8509	0	32864	
8510	0	32816	
8511	0	32808	
8512	0	32792	
8513	0	32720	
8514	0	32812	
8515	0	32712	
8516	0	32784	
8517	0	32780	
8518	0	32784	
8519	0	32748	
8520	0	32764	
8521	0	32796	
8522	0	32816	
8523	0	32732	
8524	0	32848	
8525	0	32776	
8526	0	32768	
8527	0	32836	
8528	0	32884	
8529	0	32804	
8530	0	32796	
8531	0	32768	
8532	0	32800	
8533	0	32772	
8534	0	32708	
8535	0	32746	
8536	0	32774	
8537	0	32684	
8538	0	32748	
8539	0	32703	
8540	0	32720	
8541	0	32736	
8542	0	32816	
8543	0	32832	
8544	0	32764	
8545	0	32756	
8546	0	32828	
8547	0	32738	
8548	0	32748	
8549	0	32756	
8550	0	32785	
8551	0	32784	
8552	0	32768	
8553	0	32716	
8554	0	32748	
8555	0	32752	
8556	0	32740	
8557	0	32710	
8558	0	32740	
8559	0	32808	
8560	0	32812	
8561	0	32816	
8562	0	32828	
8563	0	32865	
8564	0	32864	
8565	0	32916	
8566	0	32800	
8567	0	32812	
8568	0	32828	
8569	0	32852	
8570	0	32852	
8571	0	32860	
8572	0	32780	
8573	0	32832	
8574	0	32784	
8575	0	32800	
8576	0	32740	
8577	0	32784	
8578	0	32697	
8579	0	32736	
8580	0	32736	
8581	0	32804	
8582	0	32820	
8583	0	32764	
8584	0	32804	
8585	0	32748	
8586	0	32784	
8587	0	32830	
8588	0	32832	
8589	0	32752	
8590	0	32777	
8591	0	32800	
8592	0	32832	
8593	0	32778	
8594	0	32780	
8595	0	32672	
8596	0	32772	
8597	0	32724	
8598	0	32736	
8599	0	32764	
8600	0	32740	
8601	0	32732	
8602	0	32748	
8603	0	32820	
8604	0	32804	
8605	0	32756	
8606	0	32852	
8607	0	32804	
8608	0	32796	
8609	0	32764	
8610	0	32812	
8611	0	32876	
8612	0	32836	
8613	0	32820	
