# OpenSignals Text File Format. Version 1
# {"00:07:80:4D:2E:9E": {"sensor": ["EMG"], "device name": "00:07:80:4D:2E:9E", "column": ["nSeq", "DI", "CH1"], "sync interval": 2, "time": "12:35:45.791", "comments": "", "device connection": "BTH00:07:80:4D:2E:9E", "channels": [1], "keywords": "", "mode": 0, "digital IO": [0, 1], "firmware version": 774, "device": "biosignalsplux", "position": 0, "sampling rate": 1000, "label": ["CH1"], "resolution": [16], "date": "2020-8-1", "special": [{}]}}
# EndOfHeader
0	0	32848	
1	0	32800	
2	0	32768	
3	0	32772	
4	0	32744	
5	0	32752	
6	0	32756	
7	0	32744	
8	0	32740	
9	0	32797	
10	0	32799	
11	0	32740	
12	0	32748	
13	0	32812	
14	0	32780	
15	0	32792	
16	0	32796	
17	0	32764	
18	0	32808	
19	0	32808	
20	0	32784	
21	0	32832	
22	0	32774	
23	0	32772	
24	0	32796	
25	0	32688	
26	0	32684	
27	0	32736	
28	0	32768	
29	0	32796	
30	0	32812	
31	0	32788	
32	0	32792	
33	0	32802	
34	0	32868	
35	0	32780	
36	0	32820	
37	0	32824	
38	0	32848	
39	0	32752	
40	0	32884	
41	0	32768	
42	0	32773	
43	0	32774	
44	0	32708	
45	0	32692	
46	0	32729	
47	0	32740	
48	0	32701	
49	0	32768	
50	0	32818	
51	0	32784	
52	0	32800	
53	0	32756	
54	0	32837	
55	0	32812	
56	0	32828	
57	0	32828	
58	0	32836	
59	0	32817	
60	0	32752	
61	0	32792	
62	0	32776	
63	0	32708	
64	0	32688	
65	0	32764	
66	0	32740	
67	0	32700	
68	0	32740	
69	0	32780	
70	0	32784	
71	0	32800	
72	0	32748	
73	0	32772	
74	0	32792	
75	0	32794	
76	0	32852	
77	0	32784	
78	0	32800	
79	0	32880	
80	0	32856	
81	0	32796	
82	0	32784	
83	0	32788	
84	0	32728	
85	0	32700	
86	0	32688	
87	0	32732	
88	0	32704	
89	0	32720	
90	0	32784	
91	0	32801	
92	0	32820	
93	0	32808	
94	0	32836	
95	0	32845	
96	0	32822	
97	0	32800	
98	0	32762	
99	0	32877	
100	0	32848	
101	0	32792	
102	0	32784	
103	0	32752	
104	0	32720	
105	0	32720	
106	0	32704	
107	0	32736	
108	0	32764	
109	0	32756	
110	0	32780	
111	0	32700	
112	0	32828	
113	0	32816	
114	0	32848	
115	0	32780	
116	0	32820	
117	0	32828	
118	0	32780	
119	0	32852	
120	0	32844	
121	0	32780	
122	0	32804	
123	0	32732	
124	0	32740	
125	0	32736	
126	0	32740	
127	0	32709	
128	0	32785	
129	0	32776	
130	0	32800	
131	0	32740	
132	0	32820	
133	0	32816	
134	0	32812	
135	0	32801	
136	0	32796	
137	0	32824	
138	0	32744	
139	0	32842	
140	0	32804	
141	0	32768	
142	0	32736	
143	0	32778	
144	0	32776	
145	0	32790	
146	0	32704	
147	0	32760	
148	0	32732	
149	0	32740	
150	0	32805	
151	0	32804	
152	0	32826	
153	0	32784	
154	0	32800	
155	0	32776	
156	0	32808	
157	0	32840	
158	0	32804	
159	0	32736	
160	0	32788	
161	0	32812	
162	0	32764	
163	0	32792	
164	0	32720	
165	0	32756	
166	0	32748	
167	0	32721	
168	0	32774	
169	0	32772	
170	0	32772	
171	0	32812	
172	0	32809	
173	0	32748	
174	0	32824	
175	0	32808	
176	0	32792	
177	0	32760	
178	0	32781	
179	0	32830	
180	0	32846	
181	0	32821	
182	0	32748	
183	0	32816	
184	0	32757	
185	0	32724	
186	0	32708	
187	0	32648	
188	0	32728	
189	0	32761	
190	0	32752	
191	0	32860	
192	0	32804	
193	0	32824	
194	0	32780	
195	0	32837	
196	0	32800	
197	0	32780	
198	0	32791	
199	0	32876	
200	0	32824	
201	0	32768	
202	0	32778	
203	0	32760	
204	0	32752	
205	0	32768	
206	0	32704	
207	0	32728	
208	0	32816	
209	0	32828	
210	0	32836	
211	0	32808	
212	0	32826	
213	0	32784	
214	0	32760	
215	0	32800	
216	0	32836	
217	0	32756	
218	0	32748	
219	0	32788	
220	0	32784	
221	0	32704	
222	0	32756	
223	0	32762	
224	0	32720	
225	0	32672	
226	0	32712	
227	0	32637	
228	0	32724	
229	0	32756	
230	0	32840	
231	0	32772	
232	0	32789	
233	0	32824	
234	0	32828	
235	0	32784	
236	0	32853	
237	0	32820	
238	0	32864	
239	0	32864	
240	0	32876	
241	0	32860	
242	0	32804	
243	0	32832	
244	0	32840	
245	0	32732	
246	0	32764	
247	0	32752	
248	0	32732	
249	0	32824	
250	0	32856	
251	0	32813	
252	0	32833	
253	0	32780	
254	0	32808	
255	0	32760	
256	0	32816	
257	0	32852	
258	0	32772	
259	0	32816	
260	0	32816	
261	0	32800	
262	0	32760	
263	0	32701	
264	0	32741	
265	0	32713	
266	0	32712	
267	0	32710	
268	0	32797	
269	0	32752	
270	0	32736	
271	0	32813	
272	0	32840	
273	0	32832	
274	0	32856	
275	0	32792	
276	0	32740	
277	0	32856	
278	0	32764	
279	0	32780	
280	0	32804	
281	0	32836	
282	0	32792	
283	0	32774	
284	0	32708	
285	0	32796	
286	0	32762	
287	0	32684	
288	0	32749	
289	0	32696	
290	0	32840	
291	0	32772	
292	0	32868	
293	0	32776	
294	0	32760	
295	0	32820	
296	0	32788	
297	0	32826	
298	0	32780	
299	0	32780	
300	0	32856	
301	0	32812	
302	0	32820	
303	0	32764	
304	0	32672	
305	0	32741	
306	0	32700	
307	0	32720	
308	0	32733	
309	0	32816	
310	0	32780	
311	0	32796	
312	0	32792	
313	0	32824	
314	0	32844	
315	0	32792	
316	0	32800	
317	0	32782	
318	0	32744	
319	0	32876	
320	0	32868	
321	0	32824	
322	0	32752	
323	0	32733	
324	0	32708	
325	0	32772	
326	0	32758	
327	0	32748	
328	0	32772	
329	0	32752	
330	0	32740	
331	0	32760	
332	0	32741	
333	0	32732	
334	0	32756	
335	0	32812	
336	0	32868	
337	0	32812	
338	0	32792	
339	0	32860	
340	0	32912	
341	0	32804	
342	0	32780	
343	0	32748	
344	0	32745	
345	0	32708	
346	0	32762	
347	0	32716	
348	0	32720	
349	0	32796	
350	0	32821	
351	0	32710	
352	0	32844	
353	0	32792	
354	0	32800	
355	0	32760	
356	0	32768	
357	0	32798	
358	0	32812	
359	0	32832	
360	0	32809	
361	0	32824	
362	0	32772	
363	0	32748	
364	0	32740	
365	0	32756	
366	0	32756	
367	0	32712	
368	0	32744	
369	0	32782	
370	0	32808	
371	0	32772	
372	0	32844	
373	0	32797	
374	0	32788	
375	0	32828	
376	0	32769	
377	0	32768	
378	0	32817	
379	0	32876	
380	0	32828	
381	0	32860	
382	0	32812	
383	0	32736	
384	0	32752	
385	0	32734	
386	0	32628	
387	0	32668	
388	0	32748	
389	0	32814	
390	0	32760	
391	0	32768	
392	0	32812	
393	0	32856	
394	0	32828	
395	0	32798	
396	0	32852	
397	0	32804	
398	0	32756	
399	0	32752	
400	0	32901	
401	0	32856	
402	0	32768	
403	0	32716	
404	0	32684	
405	0	32836	
406	0	32700	
407	0	32692	
408	0	32724	
409	0	32764	
410	0	32764	
411	0	32768	
412	0	32800	
413	0	32828	
414	0	32736	
415	0	32860	
416	0	32878	
417	0	32772	
418	0	32736	
419	0	32836	
420	0	32804	
421	0	32860	
422	0	32728	
423	0	32745	
424	0	32744	
425	0	32777	
426	0	32673	
427	0	32732	
428	0	32702	
429	0	32793	
430	0	32806	
431	0	32756	
432	0	32796	
433	0	32840	
434	0	32800	
435	0	32824	
436	0	32879	
437	0	32796	
438	0	32820	
439	0	32788	
440	0	32810	
441	0	32808	
442	0	32796	
443	0	32784	
444	0	32796	
445	0	32744	
446	0	32728	
447	0	32740	
448	0	32700	
449	0	32756	
450	0	32752	
451	0	32822	
452	0	32796	
453	0	32856	
454	0	32768	
455	0	32775	
456	0	32804	
457	0	32857	
458	0	32809	
459	0	32800	
460	0	32860	
461	0	32756	
462	0	32820	
463	0	32732	
464	0	32712	
465	0	32812	
466	0	32720	
467	0	32700	
468	0	32761	
469	0	32768	
470	0	32744	
471	0	32836	
472	0	32836	
473	0	32830	
474	0	32801	
475	0	32780	
476	0	32820	
477	0	32804	
478	0	32800	
479	0	32848	
480	0	32868	
481	0	32824	
482	0	32768	
483	0	32724	
484	0	32708	
485	0	32744	
486	0	32732	
487	0	32704	
488	0	32756	
489	0	32752	
490	0	32844	
491	0	32836	
492	0	32800	
493	0	32752	
494	0	32736	
495	0	32780	
496	0	32832	
497	0	32772	
498	0	32825	
499	0	32884	
500	0	32876	
501	0	32766	
502	0	32736	
503	0	32732	
504	0	32752	
505	0	32708	
506	0	32692	
507	0	32712	
508	0	32782	
509	0	32756	
510	0	32797	
511	0	32772	
512	0	32821	
513	0	32796	
514	0	32800	
515	0	32860	
516	0	32773	
517	0	32792	
518	0	32760	
519	0	32788	
520	0	32828	
521	0	32796	
522	0	32749	
523	0	32748	
524	0	32757	
525	0	32824	
526	0	32740	
527	0	32664	
528	0	32688	
529	0	32816	
530	0	32888	
531	0	32824	
532	0	32796	
533	0	32828	
534	0	32828	
535	0	32825	
536	0	32824	
537	0	32784	
538	0	32768	
539	0	32764	
540	0	32828	
541	0	32840	
542	0	32836	
543	0	32780	
544	0	32780	
545	0	32725	
546	0	32776	
547	0	32688	
548	0	32688	
549	0	32752	
550	0	32772	
551	0	32816	
552	0	32796	
553	0	32768	
554	0	32845	
555	0	32848	
556	0	32840	
557	0	32824	
558	0	32748	
559	0	32796	
560	0	32796	
561	0	32790	
562	0	32749	
563	0	32764	
564	0	32756	
565	0	32744	
566	0	32736	
567	0	32664	
568	0	32820	
569	0	32792	
570	0	32780	
571	0	32805	
572	0	32832	
573	0	32808	
574	0	32776	
575	0	32788	
576	0	32804	
577	0	32836	
578	0	32828	
579	0	32840	
580	0	32804	
581	0	32804	
582	0	32860	
583	0	32748	
584	0	32696	
585	0	32712	
586	0	32732	
587	0	32712	
588	0	32716	
589	0	32764	
590	0	32760	
591	0	32782	
592	0	32814	
593	0	32836	
594	0	32768	
595	0	32816	
596	0	32820	
597	0	32784	
598	0	32740	
599	0	32832	
600	0	32800	
601	0	32872	
602	0	32792	
603	0	32796	
604	0	32740	
605	0	32718	
606	0	32736	
607	0	32732	
608	0	32764	
609	0	32772	
610	0	32756	
611	0	32799	
612	0	32780	
613	0	32764	
614	0	32776	
615	0	32792	
616	0	32744	
617	0	32808	
618	0	32828	
619	0	32837	
620	0	32892	
621	0	32812	
622	0	32736	
623	0	32768	
624	0	32741	
625	0	32721	
626	0	32704	
627	0	32684	
628	0	32716	
629	0	32776	
630	0	32775	
631	0	32776	
632	0	32832	
633	0	32816	
634	0	32801	
635	0	32766	
636	0	32796	
637	0	32838	
638	0	32776	
639	0	32748	
640	0	32824	
641	0	32848	
642	0	32784	
643	0	32772	
644	0	32812	
645	0	32728	
646	0	32732	
647	0	32736	
648	0	32780	
649	0	32764	
650	0	32780	
651	0	32824	
652	0	32886	
653	0	32728	
654	0	32761	
655	0	32824	
656	0	32822	
657	0	32836	
658	0	32836	
659	0	32756	
660	0	32828	
661	0	32844	
662	0	32792	
663	0	32804	
664	0	32753	
665	0	32756	
666	0	32724	
667	0	32740	
668	0	32720	
669	0	32832	
670	0	32696	
671	0	32762	
672	0	32757	
673	0	32774	
674	0	32788	
675	0	32804	
676	0	32824	
677	0	32832	
678	0	32732	
679	0	32818	
680	0	32776	
681	0	32788	
682	0	32862	
683	0	32780	
684	0	32700	
685	0	32708	
686	0	32736	
687	0	32700	
688	0	32752	
689	0	32864	
690	0	32808	
691	0	32800	
692	0	32836	
693	0	32844	
694	0	32812	
695	0	32764	
696	0	32812	
697	0	32788	
698	0	32752	
699	0	32860	
700	0	32836	
701	0	32884	
702	0	32776	
703	0	32764	
704	0	32737	
705	0	32769	
706	0	32752	
707	0	32714	
708	0	32744	
709	0	32749	
710	0	32780	
711	0	32780	
712	0	32830	
713	0	32820	
714	0	32744	
715	0	32780	
716	0	32844	
717	0	32805	
718	0	32792	
719	0	32768	
720	0	32832	
721	0	32806	
722	0	32728	
723	0	32748	
724	0	32812	
725	0	32800	
726	0	32716	
727	0	32728	
728	0	32697	
729	0	32800	
730	0	32768	
731	0	32794	
732	0	32832	
733	0	32824	
734	0	32772	
735	0	32792	
736	0	32752	
737	0	32812	
738	0	32789	
739	0	32864	
740	0	32896	
741	0	32800	
742	0	32711	
743	0	32732	
744	0	32728	
745	0	32736	
746	0	32712	
747	0	32744	
748	0	32720	
749	0	32676	
750	0	32748	
751	0	32828	
752	0	32808	
753	0	32788	
754	0	32856	
755	0	32872	
756	0	32824	
757	0	32772	
758	0	32816	
759	0	32820	
760	0	32796	
761	0	32804	
762	0	32732	
763	0	32740	
764	0	32752	
765	0	32800	
766	0	32672	
767	0	32728	
768	0	32736	
769	0	32744	
770	0	32776	
771	0	32844	
772	0	32804	
773	0	32852	
774	0	32880	
775	0	32748	
776	0	32768	
777	0	32744	
778	0	32749	
779	0	32832	
780	0	32848	
781	0	32789	
782	0	32760	
783	0	32748	
784	0	32740	
785	0	32743	
786	0	32772	
787	0	32716	
788	0	32761	
789	0	32837	
790	0	32774	
791	0	32764	
792	0	32744	
793	0	32804	
794	0	32769	
795	0	32748	
796	0	32844	
797	0	32784	
798	0	32856	
799	0	32820	
800	0	32848	
801	0	32857	
802	0	32804	
803	0	32724	
804	0	32684	
805	0	32744	
806	0	32692	
807	0	32720	
808	0	32688	
809	0	32753	
810	0	32765	
811	0	32740	
812	0	32742	
813	0	32788	
814	0	32856	
815	0	32796	
816	0	32789	
817	0	32832	
818	0	32892	
819	0	32796	
820	0	32821	
821	0	32872	
822	0	32784	
823	0	32785	
824	0	32768	
825	0	32692	
826	0	32672	
827	0	32728	
828	0	32712	
829	0	32766	
830	0	32844	
831	0	32796	
832	0	32848	
833	0	32804	
834	0	32768	
835	0	32734	
836	0	32836	
837	0	32825	
838	0	32812	
839	0	32732	
840	0	32798	
841	0	32796	
842	0	32732	
843	0	32752	
844	0	32704	
845	0	32732	
846	0	32698	
847	0	32708	
848	0	32676	
849	0	32700	
850	0	32752	
851	0	32762	
852	0	32737	
853	0	32777	
854	0	32812	
855	0	32789	
856	0	32760	
857	0	32813	
858	0	32836	
859	0	32808	
860	0	32852	
861	0	32828	
862	0	32826	
863	0	32792	
864	0	32836	
865	0	32820	
866	0	32748	
867	0	32716	
868	0	32864	
869	0	32809	
870	0	32808	
871	0	32748	
872	0	32864	
873	0	32844	
874	0	32844	
875	0	32768	
876	0	32840	
877	0	32778	
878	0	32800	
879	0	32800	
880	0	32776	
881	0	32788	
882	0	32788	
883	0	32788	
884	0	32716	
885	0	32728	
886	0	32717	
887	0	32716	
888	0	32692	
889	0	32784	
890	0	32716	
891	0	32836	
892	0	32765	
893	0	32767	
894	0	32790	
895	0	32756	
896	0	32740	
897	0	32820	
898	0	32776	
899	0	32836	
900	0	32872	
901	0	32804	
902	0	32844	
903	0	32676	
904	0	32766	
905	0	32732	
906	0	32725	
907	0	32708	
908	0	32752	
909	0	32748	
910	0	32769	
911	0	32736	
912	0	32868	
913	0	32841	
914	0	32812	
915	0	32800	
916	0	32850	
917	0	32712	
918	0	32820	
919	0	32846	
920	0	32870	
921	0	32784	
922	0	32756	
923	0	32704	
924	0	32704	
925	0	32784	
926	0	32768	
927	0	32720	
928	0	32768	
929	0	32758	
930	0	32748	
931	0	32804	
932	0	32800	
933	0	32744	
934	0	32817	
935	0	32808	
936	0	32832	
937	0	32796	
938	0	32896	
939	0	32836	
940	0	32817	
941	0	32832	
942	0	32816	
943	0	32752	
944	0	32732	
945	0	32734	
946	0	32692	
947	0	32724	
948	0	32680	
949	0	32742	
950	0	32732	
951	0	32820	
952	0	32800	
953	0	32832	
954	0	32796	
955	0	32820	
956	0	32832	
957	0	32824	
958	0	32784	
959	0	32852	
960	0	32798	
961	0	32796	
962	0	32824	
963	0	32776	
964	0	32784	
965	0	32720	
966	0	32660	
967	0	32732	
968	0	32764	
969	0	32733	
970	0	32700	
971	0	32760	
972	0	32852	
973	0	32796	
974	0	32816	
975	0	32800	
976	0	32792	
977	0	32752	
978	0	32836	
979	0	32852	
980	0	32808	
981	0	32828	
982	0	32812	
983	0	32717	
984	0	32767	
985	0	32792	
986	0	32692	
987	0	32728	
988	0	32752	
989	0	32748	
990	0	32762	
991	0	32752	
992	0	32792	
993	0	32812	
994	0	32800	
995	0	32832	
996	0	32820	
997	0	32760	
998	0	32788	
999	0	32812	
1000	0	32880	
1001	0	32832	
1002	0	32740	
1003	0	32780	
1004	0	32800	
1005	0	32805	
1006	0	32733	
1007	0	32676	
1008	0	32736	
1009	0	32800	
1010	0	32788	
1011	0	32848	
1012	0	32764	
1013	0	32760	
1014	0	32768	
1015	0	32816	
1016	0	32762	
1017	0	32768	
1018	0	32764	
1019	0	32820	
1020	0	32844	
1021	0	32860	
1022	0	32772	
1023	0	32756	
1024	0	32780	
1025	0	32792	
1026	0	32708	
1027	0	32740	
1028	0	32748	
1029	0	32782	
1030	0	32740	
1031	0	32808	
1032	0	32794	
1033	0	32756	
1034	0	32756	
1035	0	32836	
1036	0	32760	
1037	0	32808	
1038	0	32816	
1039	0	32804	
1040	0	32861	
1041	0	32812	
1042	0	32832	
1043	0	32764	
1044	0	32710	
1045	0	32776	
1046	0	32716	
1047	0	32736	
1048	0	32676	
1049	0	32724	
1050	0	32768	
1051	0	32782	
1052	0	32804	
1053	0	32832	
1054	0	32876	
1055	0	32812	
1056	0	32796	
1057	0	32844	
1058	0	32820	
1059	0	32812	
1060	0	32802	
1061	0	32756	
1062	0	32736	
1063	0	32764	
1064	0	32752	
1065	0	32704	
1066	0	32704	
1067	0	32692	
1068	0	32765	
1069	0	32740	
1070	0	32800	
1071	0	32832	
1072	0	32704	
1073	0	32752	
1074	0	32793	
1075	0	32868	
1076	0	32808	
1077	0	32836	
1078	0	32784	
1079	0	32840	
1080	0	32825	
1081	0	32864	
1082	0	32805	
1083	0	32668	
1084	0	32740	
1085	0	32676	
1086	0	32736	
1087	0	32696	
1088	0	32744	
1089	0	32780	
1090	0	32745	
1091	0	32784	
1092	0	32857	
1093	0	32816	
1094	0	32870	
1095	0	32760	
1096	0	32828	
1097	0	32793	
1098	0	32829	
1099	0	32828	
1100	0	32840	
1101	0	32840	
1102	0	32796	
1103	0	32712	
1104	0	32792	
1105	0	32800	
1106	0	32704	
1107	0	32740	
1108	0	32762	
1109	0	32736	
1110	0	32692	
1111	0	32776	
1112	0	32856	
1113	0	32780	
1114	0	32840	
1115	0	32864	
1116	0	32764	
1117	0	32774	
1118	0	32864	
1119	0	32852	
1120	0	32828	
1121	0	32756	
1122	0	32750	
1123	0	32784	
1124	0	32712	
1125	0	32668	
1126	0	32704	
1127	0	32724	
1128	0	32748	
1129	0	32716	
1130	0	32812	
1131	0	32856	
1132	0	32848	
1133	0	32822	
1134	0	32824	
1135	0	32820	
1136	0	32840	
1137	0	32756	
1138	0	32785	
1139	0	32720	
1140	0	32900	
1141	0	32764	
1142	0	32768	
1143	0	32758	
1144	0	32812	
1145	0	32772	
1146	0	32716	
1147	0	32764	
1148	0	32736	
1149	0	32752	
1150	0	32692	
1151	0	32796	
1152	0	32772	
1153	0	32812	
1154	0	32804	
1155	0	32824	
1156	0	32832	
1157	0	32812	
1158	0	32796	
1159	0	32796	
1160	0	32800	
1161	0	32812	
1162	0	32788	
1163	0	32744	
1164	0	32788	
1165	0	32772	
1166	0	32721	
1167	0	32720	
1168	0	32740	
1169	0	32804	
1170	0	32768	
1171	0	32704	
1172	0	32820	
1173	0	32796	
1174	0	32768	
1175	0	32824	
1176	0	32726	
1177	0	32808	
1178	0	32788	
1179	0	32792	
1180	0	32894	
1181	0	32748	
1182	0	32824	
1183	0	32704	
1184	0	32792	
1185	0	32766	
1186	0	32740	
1187	0	32684	
1188	0	32720	
1189	0	32768	
1190	0	32812	
1191	0	32824	
1192	0	32781	
1193	0	32796	
1194	0	32744	
1195	0	32820	
1196	0	32820	
1197	0	32788	
1198	0	32884	
1199	0	32856	
1200	0	32816	
1201	0	32753	
1202	0	32750	
1203	0	32736	
1204	0	32774	
1205	0	32764	
1206	0	32760	
1207	0	32684	
1208	0	32788	
1209	0	32728	
1210	0	32752	
1211	0	32774	
1212	0	32814	
1213	0	32788	
1214	0	32797	
1215	0	32776	
1216	0	32796	
1217	0	32814	
1218	0	32832	
1219	0	32764	
1220	0	32808	
1221	0	32788	
1222	0	32744	
1223	0	32788	
1224	0	32772	
1225	0	32748	
1226	0	32756	
1227	0	32692	
1228	0	32718	
1229	0	32837	
1230	0	32813	
1231	0	32760	
1232	0	32800	
1233	0	32792	
1234	0	32824	
1235	0	32848	
1236	0	32752	
1237	0	32792	
1238	0	32772	
1239	0	32832	
1240	0	32832	
1241	0	32752	
1242	0	32749	
1243	0	32694	
1244	0	32744	
1245	0	32780	
1246	0	32772	
1247	0	32732	
1248	0	32768	
1249	0	32772	
1250	0	32780	
1251	0	32784	
1252	0	32804	
1253	0	32788	
1254	0	32796	
1255	0	32769	
1256	0	32794	
1257	0	32844	
1258	0	32816	
1259	0	32820	
1260	0	32856	
1261	0	32796	
1262	0	32792	
1263	0	32728	
1264	0	32768	
1265	0	32732	
1266	0	32681	
1267	0	32824	
1268	0	32814	
1269	0	32746	
1270	0	32689	
1271	0	32704	
1272	0	32836	
1273	0	32780	
1274	0	32840	
1275	0	32838	
1276	0	32756	
1277	0	32804	
1278	0	32812	
1279	0	32892	
1280	0	32808	
1281	0	32772	
1282	0	32820	
1283	0	32744	
1284	0	32761	
1285	0	32800	
1286	0	32716	
1287	0	32700	
1288	0	32744	
1289	0	32760	
1290	0	32800	
1291	0	32720	
1292	0	32797	
1293	0	32806	
1294	0	32792	
1295	0	32868	
1296	0	32788	
1297	0	32780	
1298	0	32796	
1299	0	32818	
1300	0	32864	
1301	0	32784	
1302	0	32752	
1303	0	32712	
1304	0	32736	
1305	0	32776	
1306	0	32692	
1307	0	32692	
1308	0	32728	
1309	0	32792	
1310	0	32772	
1311	0	32864	
1312	0	32762	
1313	0	32769	
1314	0	32800	
1315	0	32772	
1316	0	32804	
1317	0	32832	
1318	0	32760	
1319	0	32772	
1320	0	32812	
1321	0	32816	
1322	0	32745	
1323	0	32788	
1324	0	32756	
1325	0	32720	
1326	0	32780	
1327	0	32752	
1328	0	32724	
1329	0	32696	
1330	0	32725	
1331	0	32798	
1332	0	32814	
1333	0	32772	
1334	0	32813	
1335	0	32784	
1336	0	32884	
1337	0	32841	
1338	0	32836	
1339	0	32840	
1340	0	32804	
1341	0	32806	
1342	0	32798	
1343	0	32692	
1344	0	32764	
1345	0	32720	
1346	0	32748	
1347	0	32736	
1348	0	32700	
1349	0	32752	
1350	0	32836	
1351	0	32784	
1352	0	32816	
1353	0	32748	
1354	0	32764	
1355	0	32761	
1356	0	32830	
1357	0	32796	
1358	0	32804	
1359	0	32828	
1360	0	32864	
1361	0	32800	
1362	0	32792	
1363	0	32736	
1364	0	32764	
1365	0	32680	
1366	0	32692	
1367	0	32756	
1368	0	32734	
1369	0	32768	
1370	0	32816	
1371	0	32844	
1372	0	32832	
1373	0	32832	
1374	0	32844	
1375	0	32808	
1376	0	32768	
1377	0	32776	
1378	0	32788	
1379	0	32832	
1380	0	32808	
1381	0	32804	
1382	0	32861	
1383	0	32704	
1384	0	32760	
1385	0	32700	
1386	0	32708	
1387	0	32764	
1388	0	32760	
1389	0	32748	
1390	0	32724	
1391	0	32710	
1392	0	32832	
1393	0	32896	
1394	0	32804	
1395	0	32828	
1396	0	32756	
1397	0	32812	
1398	0	32832	
1399	0	32804	
1400	0	32864	
1401	0	32832	
1402	0	32824	
1403	0	32768	
1404	0	32663	
1405	0	32633	
1406	0	32772	
1407	0	32743	
1408	0	32768	
1409	0	32796	
1410	0	32800	
1411	0	32788	
1412	0	32824	
1413	0	32734	
1414	0	32814	
1415	0	32804	
1416	0	32788	
1417	0	32752	
1418	0	32776	
1419	0	32796	
1420	0	32865	
1421	0	32824	
1422	0	32749	
1423	0	32705	
1424	0	32764	
1425	0	32696	
1426	0	32684	
1427	0	32688	
1428	0	32864	
1429	0	32724	
1430	0	32780	
1431	0	32772	
1432	0	32848	
1433	0	32828	
1434	0	32796	
1435	0	32780	
1436	0	32784	
1437	0	32857	
1438	0	32828	
1439	0	32840	
1440	0	32836	
1441	0	32741	
1442	0	32828	
1443	0	32772	
1444	0	32769	
1445	0	32761	
1446	0	32744	
1447	0	32757	
1448	0	32760	
1449	0	32712	
1450	0	32792	
1451	0	32740	
1452	0	32800	
1453	0	32825	
1454	0	32833	
1455	0	32782	
1456	0	32840	
1457	0	32771	
1458	0	32828	
1459	0	32804	
1460	0	32918	
1461	0	32804	
1462	0	32868	
1463	0	32789	
1464	0	32768	
1465	0	32740	
1466	0	32628	
1467	0	32636	
1468	0	32788	
1469	0	32704	
1470	0	32792	
1471	0	32756	
1472	0	32752	
1473	0	32680	
1474	0	32770	
1475	0	32804	
1476	0	32840	
1477	0	32824	
1478	0	32782	
1479	0	32816	
1480	0	32816	
1481	0	32772	
1482	0	32708	
1483	0	32706	
1484	0	32744	
1485	0	32708	
1486	0	32668	
1487	0	32704	
1488	0	32694	
1489	0	32756	
1490	0	32840	
1491	0	32760	
1492	0	32844	
1493	0	32864	
1494	0	32887	
1495	0	32848	
1496	0	32869	
1497	0	32724	
1498	0	32852	
1499	0	32880	
1500	0	32852	
1501	0	32864	
1502	0	32796	
1503	0	32733	
1504	0	32780	
1505	0	32776	
1506	0	32756	
1507	0	32712	
1508	0	32812	
1509	0	32740	
1510	0	32828	
1511	0	32828	
1512	0	32816	
1513	0	32816	
1514	0	32864	
1515	0	32812	
1516	0	32764	
1517	0	32788	
1518	0	32792	
1519	0	32766	
1520	0	32864	
1521	0	32808	
1522	0	32740	
1523	0	32742	
1524	0	32704	
1525	0	32748	
1526	0	32756	
1527	0	32696	
1528	0	32776	
1529	0	32724	
1530	0	32820	
1531	0	32772	
1532	0	32752	
1533	0	32764	
1534	0	32740	
1535	0	32817	
1536	0	32812	
1537	0	32736	
1538	0	32788	
1539	0	32808	
1540	0	32840	
1541	0	32804	
1542	0	32808	
1543	0	32764	
1544	0	32776	
1545	0	32740	
1546	0	32708	
1547	0	32806	
1548	0	32805	
1549	0	32740	
1550	0	32816	
1551	0	32750	
1552	0	32796	
1553	0	32852	
1554	0	32800	
1555	0	32816	
1556	0	32844	
1557	0	32804	
1558	0	32756	
1559	0	32852	
1560	0	32836	
1561	0	32700	
1562	0	32848	
1563	0	32766	
1564	0	32712	
1565	0	32808	
1566	0	32700	
1567	0	32772	
1568	0	32775	
1569	0	32688	
1570	0	32780	
1571	0	32769	
1572	0	32788	
1573	0	32842	
1574	0	32788	
1575	0	32832	
1576	0	32788	
1577	0	32852	
1578	0	32788	
1579	0	32848	
1580	0	32828	
1581	0	32832	
1582	0	32796	
1583	0	32744	
1584	0	32708	
1585	0	32789	
1586	0	32728	
1587	0	32700	
1588	0	32757	
1589	0	32761	
1590	0	32752	
1591	0	32800	
1592	0	32804	
1593	0	32868	
1594	0	32796	
1595	0	32820	
1596	0	32840	
1597	0	32825	
1598	0	32848	
1599	0	32826	
1600	0	32804	
1601	0	32836	
1602	0	32796	
1603	0	32736	
1604	0	32727	
1605	0	32710	
1606	0	32756	
1607	0	32704	
1608	0	32784	
1609	0	32792	
1610	0	32740	
1611	0	32744	
1612	0	32800	
1613	0	32796	
1614	0	32884	
1615	0	32832	
1616	0	32748	
1617	0	32780	
1618	0	32804	
1619	0	32840	
1620	0	32848	
1621	0	32804	
1622	0	32775	
1623	0	32704	
1624	0	32788	
1625	0	32700	
1626	0	32808	
1627	0	32744	
1628	0	32712	
1629	0	32740	
1630	0	32772	
1631	0	32708	
1632	0	32840	
1633	0	32844	
1634	0	32800	
1635	0	32804	
1636	0	32796	
1637	0	32792	
1638	0	32784	
1639	0	32844	
1640	0	32852	
1641	0	32868	
1642	0	32688	
1643	0	32708	
1644	0	32832	
1645	0	32732	
1646	0	32732	
1647	0	32736	
1648	0	32722	
1649	0	32754	
1650	0	32748	
1651	0	32752	
1652	0	32836	
1653	0	32764	
1654	0	32766	
1655	0	32844	
1656	0	32768	
1657	0	32836	
1658	0	32877	
1659	0	32837	
1660	0	32774	
1661	0	32864	
1662	0	32792	
1663	0	32748	
1664	0	32742	
1665	0	32704	
1666	0	32740	
1667	0	32649	
1668	0	32752	
1669	0	32796	
1670	0	32732	
1671	0	32772	
1672	0	32816	
1673	0	32806	
1674	0	32824	
1675	0	32814	
1676	0	32820	
1677	0	32820	
1678	0	32772	
1679	0	32752	
1680	0	32828	
1681	0	32832	
1682	0	32820	
1683	0	32716	
1684	0	32709	
1685	0	32768	
1686	0	32686	
1687	0	32737	
1688	0	32676	
1689	0	32748	
1690	0	32760	
1691	0	32852	
1692	0	32824	
1693	0	32816	
1694	0	32808	
1695	0	32780	
1696	0	32821	
1697	0	32840	
1698	0	32824	
1699	0	32850	
1700	0	32748	
1701	0	32836	
1702	0	32772	
1703	0	32765	
1704	0	32728	
1705	0	32713	
1706	0	32684	
1707	0	32709	
1708	0	32736	
1709	0	32720	
1710	0	32812	
1711	0	32766	
1712	0	32808	
1713	0	32838	
1714	0	32780	
1715	0	32768	
1716	0	32788	
1717	0	32750	
1718	0	32800	
1719	0	32840	
1720	0	32900	
1721	0	32836	
1722	0	32812	
1723	0	32784	
1724	0	32785	
1725	0	32760	
1726	0	32688	
1727	0	32696	
1728	0	32732	
1729	0	32764	
1730	0	32780	
1731	0	32756	
1732	0	32804	
1733	0	32780	
1734	0	32828	
1735	0	32848	
1736	0	32828	
1737	0	32788	
1738	0	32800	
1739	0	32805	
1740	0	32868	
1741	0	32836	
1742	0	32756	
1743	0	32712	
1744	0	32766	
1745	0	32740	
1746	0	32692	
1747	0	32724	
1748	0	32737	
1749	0	32781	
1750	0	32812	
1751	0	32820	
1752	0	32817	
1753	0	32816	
1754	0	32812	
1755	0	32796	
1756	0	32812	
1757	0	32796	
1758	0	32820	
1759	0	32816	
1760	0	32804	
1761	0	32800	
1762	0	32776	
1763	0	32750	
1764	0	32768	
1765	0	32750	
1766	0	32728	
1767	0	32712	
1768	0	32720	
1769	0	32784	
1770	0	32776	
1771	0	32752	
1772	0	32796	
1773	0	32836	
1774	0	32805	
1775	0	32828	
1776	0	32776	
1777	0	32785	
1778	0	32776	
1779	0	32836	
1780	0	32879	
1781	0	32828	
1782	0	32796	
1783	0	32800	
1784	0	32744	
1785	0	32688	
1786	0	32716	
1787	0	32724	
1788	0	32768	
1789	0	32729	
1790	0	32777	
1791	0	32748	
1792	0	32840	
1793	0	32820	
1794	0	32817	
1795	0	32856	
1796	0	32812	
1797	0	32790	
1798	0	32792	
1799	0	32844	
1800	0	32820	
1801	0	32816	
1802	0	32768	
1803	0	32776	
1804	0	32728	
1805	0	32708	
1806	0	32728	
1807	0	32706	
1808	0	32741	
1809	0	32780	
1810	0	32852	
1811	0	32782	
1812	0	32816	
1813	0	32813	
1814	0	32820	
1815	0	32844	
1816	0	32826	
1817	0	32764	
1818	0	32798	
1819	0	32732	
1820	0	32872	
1821	0	32796	
1822	0	32734	
1823	0	32704	
1824	0	32768	
1825	0	32737	
1826	0	32712	
1827	0	32729	
1828	0	32728	
1829	0	32788	
1830	0	32805	
1831	0	32790	
1832	0	32816	
1833	0	32772	
1834	0	32824	
1835	0	32808	
1836	0	32836	
1837	0	32828	
1838	0	32752	
1839	0	32764	
1840	0	32873	
1841	0	32836	
1842	0	32822	
1843	0	32768	
1844	0	32748	
1845	0	32748	
1846	0	32652	
1847	0	32780	
1848	0	32756	
1849	0	32780	
1850	0	32700	
1851	0	32796	
1852	0	32748	
1853	0	32820	
1854	0	32820	
1855	0	32785	
1856	0	32812	
1857	0	32852	
1858	0	32840	
1859	0	32872	
1860	0	32800	
1861	0	32836	
1862	0	32736	
1863	0	32694	
1864	0	32744	
1865	0	32748	
1866	0	32738	
1867	0	32695	
1868	0	32714	
1869	0	32764	
1870	0	32760	
1871	0	32750	
1872	0	32796	
1873	0	32832	
1874	0	32808	
1875	0	32776	
1876	0	32761	
1877	0	32792	
1878	0	32896	
1879	0	32777	
1880	0	32860	
1881	0	32784	
1882	0	32814	
1883	0	32692	
1884	0	32724	
1885	0	32805	
1886	0	32694	
1887	0	32742	
1888	0	32749	
1889	0	32676	
1890	0	32844	
1891	0	32700	
1892	0	32848	
1893	0	32812	
1894	0	32804	
1895	0	32773	
1896	0	32793	
1897	0	32797	
1898	0	32852	
1899	0	32788	
1900	0	32776	
1901	0	32892	
1902	0	32800	
1903	0	32784	
1904	0	32708	
1905	0	32694	
1906	0	32756	
1907	0	32720	
1908	0	32753	
1909	0	32816	
1910	0	32820	
1911	0	32740	
1912	0	32796	
1913	0	32746	
1914	0	32784	
1915	0	32808	
1916	0	32822	
1917	0	32828	
1918	0	32780	
1919	0	32812	
1920	0	32920	
1921	0	32772	
1922	0	32812	
1923	0	32768	
1924	0	32724	
1925	0	32704	
1926	0	32716	
1927	0	32772	
1928	0	32794	
1929	0	32788	
1930	0	32733	
1931	0	32784	
1932	0	32820	
1933	0	32800	
1934	0	32816	
1935	0	32856	
1936	0	32796	
1937	0	32817	
1938	0	32832	
1939	0	32816	
1940	0	32756	
1941	0	32844	
1942	0	32772	
1943	0	32704	
1944	0	32760	
1945	0	32752	
1946	0	32644	
1947	0	32732	
1948	0	32744	
1949	0	32780	
1950	0	32788	
1951	0	32772	
1952	0	32740	
1953	0	32792	
1954	0	32834	
1955	0	32816	
1956	0	32804	
1957	0	32772	
1958	0	32862	
1959	0	32832	
1960	0	32832	
1961	0	32784	
1962	0	32808	
1963	0	32772	
1964	0	32692	
1965	0	32724	
1966	0	32760	
1967	0	32708	
1968	0	32716	
1969	0	32756	
1970	0	32860	
1971	0	32760	
1972	0	32824	
1973	0	32744	
1974	0	32808	
1975	0	32804	
1976	0	32800	
1977	0	32856	
1978	0	32796	
1979	0	32788	
1980	0	32888	
1981	0	32820	
1982	0	32776	
1983	0	32808	
1984	0	32796	
1985	0	32760	
1986	0	32712	
1987	0	32725	
1988	0	32772	
1989	0	32804	
1990	0	32768	
1991	0	32760	
1992	0	32812	
1993	0	32876	
1994	0	32756	
1995	0	32740	
1996	0	32838	
1997	0	32784	
1998	0	32778	
1999	0	32812	
2000	0	32784	
2001	0	32833	
2002	0	32832	
2003	0	32756	
2004	0	32744	
2005	0	32732	
2006	0	32748	
2007	0	32708	
2008	0	32720	
2009	0	32732	
2010	0	32712	
2011	0	32774	
2012	0	32781	
2013	0	32788	
2014	0	32800	
2015	0	32856	
2016	0	32848	
2017	0	32824	
2018	0	32772	
2019	0	32758	
2020	0	32864	
2021	0	32834	
2022	0	32744	
2023	0	32720	
2024	0	32737	
2025	0	32736	
2026	0	32780	
2027	0	32756	
2028	0	32756	
2029	0	32736	
2030	0	32745	
2031	0	32772	
2032	0	32836	
2033	0	32812	
2034	0	32784	
2035	0	32812	
2036	0	32844	
2037	0	32824	
2038	0	32726	
2039	0	32876	
2040	0	32850	
2041	0	32780	
2042	0	32760	
2043	0	32830	
2044	0	32734	
2045	0	32748	
2046	0	32696	
2047	0	32748	
2048	0	32758	
2049	0	32700	
2050	0	32852	
2051	0	32781	
2052	0	32772	
2053	0	32741	
2054	0	32812	
2055	0	32833	
2056	0	32846	
2057	0	32816	
2058	0	32777	
2059	0	32816	
2060	0	32832	
2061	0	32852	
2062	0	32736	
2063	0	32780	
2064	0	32768	
2065	0	32716	
2066	0	32748	
2067	0	32701	
2068	0	32784	
2069	0	32736	
2070	0	32748	
2071	0	32792	
2072	0	32796	
2073	0	32852	
2074	0	32860	
2075	0	32744	
2076	0	32820	
2077	0	32824	
2078	0	32824	
2079	0	32793	
2080	0	32868	
2081	0	32800	
2082	0	32840	
2083	0	32728	
2084	0	32756	
2085	0	32748	
2086	0	32760	
2087	0	32749	
2088	0	32804	
2089	0	32752	
2090	0	32784	
2091	0	32781	
2092	0	32772	
2093	0	32776	
2094	0	32796	
2095	0	32785	
2096	0	32782	
2097	0	32800	
2098	0	32728	
2099	0	32821	
2100	0	32780	
2101	0	32824	
2102	0	32770	
2103	0	32660	
2104	0	32724	
2105	0	32696	
2106	0	32732	
2107	0	32676	
2108	0	32680	
2109	0	32720	
2110	0	32703	
2111	0	32816	
2112	0	32716	
2113	0	32897	
2114	0	32828	
2115	0	32802	
2116	0	32848	
2117	0	32820	
2118	0	32884	
2119	0	32896	
2120	0	32844	
2121	0	32880	
2122	0	32816	
2123	0	32780	
2124	0	32730	
2125	0	32790	
2126	0	32740	
2127	0	32673	
2128	0	32804	
2129	0	32773	
2130	0	32812	
2131	0	32748	
2132	0	32797	
2133	0	32804	
2134	0	32842	
2135	0	32856	
2136	0	32824	
2137	0	32784	
2138	0	32792	
2139	0	32788	
2140	0	32789	
2141	0	32768	
2142	0	32767	
2143	0	32688	
2144	0	32708	
2145	0	32788	
2146	0	32702	
2147	0	32648	
2148	0	32709	
2149	0	32772	
2150	0	32712	
2151	0	32764	
2152	0	32820	
2153	0	32817	
2154	0	32812	
2155	0	32836	
2156	0	32792	
2157	0	32858	
2158	0	32812	
2159	0	32796	
2160	0	32876	
2161	0	32808	
2162	0	32812	
2163	0	32772	
2164	0	32780	
2165	0	32760	
2166	0	32732	
2167	0	32693	
2168	0	32668	
2169	0	32804	
2170	0	32804	
2171	0	32798	
2172	0	32737	
2173	0	32804	
2174	0	32782	
2175	0	32832	
2176	0	32821	
2177	0	32800	
2178	0	32800	
2179	0	32780	
2180	0	32884	
2181	0	32848	
2182	0	32812	
2183	0	32700	
2184	0	32716	
2185	0	32744	
2186	0	32710	
2187	0	32748	
2188	0	32776	
2189	0	32692	
2190	0	32736	
2191	0	32728	
2192	0	32772	
2193	0	32790	
2194	0	32772	
2195	0	32872	
2196	0	32768	
2197	0	32810	
2198	0	32760	
2199	0	32852	
2200	0	32836	
2201	0	32792	
2202	0	32824	
2203	0	32778	
2204	0	32820	
2205	0	32756	
2206	0	32716	
2207	0	32721	
2208	0	32768	
2209	0	32769	
2210	0	32752	
2211	0	32728	
2212	0	32788	
2213	0	32796	
2214	0	32832	
2215	0	32844	
2216	0	32804	
2217	0	32796	
2218	0	32764	
2219	0	32768	
2220	0	32800	
2221	0	32848	
2222	0	32792	
2223	0	32725	
2224	0	32792	
2225	0	32705	
2226	0	32698	
2227	0	32737	
2228	0	32764	
2229	0	32789	
2230	0	32772	
2231	0	32824	
2232	0	32852	
2233	0	32876	
2234	0	32752	
2235	0	32832	
2236	0	32765	
2237	0	32804	
2238	0	32828	
2239	0	32852	
2240	0	32848	
2241	0	32824	
2242	0	32684	
2243	0	32732	
2244	0	32724	
2245	0	32740	
2246	0	32692	
2247	0	32712	
2248	0	32732	
2249	0	32780	
2250	0	32792	
2251	0	32708	
2252	0	32736	
2253	0	32748	
2254	0	32798	
2255	0	32828	
2256	0	32804	
2257	0	32816	
2258	0	32836	
2259	0	32792	
2260	0	32860	
2261	0	32852	
2262	0	32788	
2263	0	32781	
2264	0	32776	
2265	0	32700	
2266	0	32705	
2267	0	32756	
2268	0	32671	
2269	0	32724	
2270	0	32789	
2271	0	32812	
2272	0	32812	
2273	0	32856	
2274	0	32836	
2275	0	32780	
2276	0	32760	
2277	0	32784	
2278	0	32808	
2279	0	32788	
2280	0	32792	
2281	0	32780	
2282	0	32748	
2283	0	32728	
2284	0	32720	
2285	0	32764	
2286	0	32716	
2287	0	32748	
2288	0	32686	
2289	0	32804	
2290	0	32700	
2291	0	32813	
2292	0	32804	
2293	0	32816	
2294	0	32749	
2295	0	32828	
2296	0	32792	
2297	0	32800	
2298	0	32764	
2299	0	32868	
2300	0	32848	
2301	0	32865	
2302	0	32798	
2303	0	32768	
2304	0	32782	
2305	0	32708	
2306	0	32716	
2307	0	32756	
2308	0	32752	
2309	0	32745	
2310	0	32776	
2311	0	32753	
2312	0	32768	
2313	0	32796	
2314	0	32844	
2315	0	32752	
2316	0	32828	
2317	0	32856	
2318	0	32800	
2319	0	32812	
2320	0	32860	
2321	0	32804	
2322	0	32792	
2323	0	32808	
2324	0	32712	
2325	0	32740	
2326	0	32724	
2327	0	32704	
2328	0	32760	
2329	0	32768	
2330	0	32808	
2331	0	32736	
2332	0	32852	
2333	0	32840	
2334	0	32800	
2335	0	32804	
2336	0	32794	
2337	0	32840	
2338	0	32800	
2339	0	32768	
2340	0	32836	
2341	0	32848	
2342	0	32748	
2343	0	32812	
2344	0	32804	
2345	0	32700	
2346	0	32656	
2347	0	32669	
2348	0	32692	
2349	0	32772	
2350	0	32786	
2351	0	32793	
2352	0	32812	
2353	0	32808	
2354	0	32864	
2355	0	32788	
2356	0	32792	
2357	0	32784	
2358	0	32800	
2359	0	32813	
2360	0	32856	
2361	0	32828	
2362	0	32852	
2363	0	32776	
2364	0	32696	
2365	0	32784	
2366	0	32760	
2367	0	32740	
2368	0	32736	
2369	0	32716	
2370	0	32798	
2371	0	32796	
2372	0	32824	
2373	0	32853	
2374	0	32768	
2375	0	32808	
2376	0	32836	
2377	0	32804	
2378	0	32820	
2379	0	32788	
2380	0	32852	
2381	0	32836	
2382	0	32806	
2383	0	32792	
2384	0	32789	
2385	0	32681	
2386	0	32724	
2387	0	32692	
2388	0	32750	
2389	0	32708	
2390	0	32760	
2391	0	32776	
2392	0	32812	
2393	0	32813	
2394	0	32764	
2395	0	32818	
2396	0	32808	
2397	0	32780	
2398	0	32788	
2399	0	32888	
2400	0	32884	
2401	0	32812	
2402	0	32792	
2403	0	32716	
2404	0	32737	
2405	0	32724	
2406	0	32668	
2407	0	32712	
2408	0	32716	
2409	0	32781	
2410	0	32776	
2411	0	32756	
2412	0	32832	
2413	0	32796	
2414	0	32788	
2415	0	32751	
2416	0	32820	
2417	0	32796	
2418	0	32800	
2419	0	32804	
2420	0	32872	
2421	0	32868	
2422	0	32804	
2423	0	32710	
2424	0	32760	
2425	0	32772	
2426	0	32697	
2427	0	32720	
2428	0	32756	
2429	0	32737	
2430	0	32784	
2431	0	32740	
2432	0	32732	
2433	0	32784	
2434	0	32812	
2435	0	32836	
2436	0	32799	
2437	0	32768	
2438	0	32744	
2439	0	32820	
2440	0	32812	
2441	0	32848	
2442	0	32780	
2443	0	32756	
2444	0	32736	
2445	0	32804	
2446	0	32712	
2447	0	32732	
2448	0	32708	
2449	0	32724	
2450	0	32812	
2451	0	32804	
2452	0	32768	
2453	0	32784	
2454	0	32808	
2455	0	32840	
2456	0	32797	
2457	0	32772	
2458	0	32736	
2459	0	32792	
2460	0	32798	
2461	0	32854	
2462	0	32796	
2463	0	32796	
2464	0	32768	
2465	0	32708	
2466	0	32696	
2467	0	32720	
2468	0	32752	
2469	0	32756	
2470	0	32756	
2471	0	32704	
2472	0	32792	
2473	0	32788	
2474	0	32828	
2475	0	32804	
2476	0	32780	
2477	0	32756	
2478	0	32832	
2479	0	32828	
2480	0	32852	
2481	0	32840	
2482	0	32788	
2483	0	32764	
2484	0	32802	
2485	0	32812	
2486	0	32749	
2487	0	32704	
2488	0	32644	
2489	0	32774	
2490	0	32752	
2491	0	32801	
2492	0	32834	
2493	0	32776	
2494	0	32822	
2495	0	32764	
2496	0	32777	
2497	0	32824	
2498	0	32790	
2499	0	32740	
2500	0	32832	
2501	0	32776	
2502	0	32796	
2503	0	32740	
2504	0	32724	
2505	0	32740	
2506	0	32732	
2507	0	32662	
2508	0	32740	
2509	0	32798	
2510	0	32832	
2511	0	32772	
2512	0	32724	
2513	0	32844	
2514	0	32788	
2515	0	32780	
2516	0	32836	
2517	0	32780	
2518	0	32788	
2519	0	32824	
2520	0	32870	
2521	0	32868	
2522	0	32814	
2523	0	32732	
2524	0	32732	
2525	0	32792	
2526	0	32669	
2527	0	32733	
2528	0	32688	
2529	0	32708	
2530	0	32768	
2531	0	32740	
2532	0	32764	
2533	0	32820	
2534	0	32836	
2535	0	32856	
2536	0	32789	
2537	0	32820	
2538	0	32765	
2539	0	32844	
2540	0	32780	
2541	0	32828	
2542	0	32832	
2543	0	32692	
2544	0	32756	
2545	0	32696	
2546	0	32764	
2547	0	32712	
2548	0	32744	
2549	0	32680	
2550	0	32756	
2551	0	32792	
2552	0	32792	
2553	0	32848	
2554	0	32768	
2555	0	32770	
2556	0	32741	
2557	0	32812	
2558	0	32852	
2559	0	32876	
2560	0	32828	
2561	0	32872	
2562	0	32796	
2563	0	32696	
2564	0	32708	
2565	0	32780	
2566	0	32684	
2567	0	32710	
2568	0	32788	
2569	0	32712	
2570	0	32756	
2571	0	32778	
2572	0	32782	
2573	0	32816	
2574	0	32776	
2575	0	32766	
2576	0	32852	
2577	0	32804	
2578	0	32813	
2579	0	32865	
2580	0	32812	
2581	0	32804	
2582	0	32776	
2583	0	32676	
2584	0	32770	
2585	0	32764	
2586	0	32720	
2587	0	32748	
2588	0	32660	
2589	0	32756	
2590	0	32796	
2591	0	32736	
2592	0	32800	
2593	0	32857	
2594	0	32792	
2595	0	32896	
2596	0	32808	
2597	0	32792	
2598	0	32812	
2599	0	32852	
2600	0	32784	
2601	0	32884	
2602	0	32752	
2603	0	32767	
2604	0	32768	
2605	0	32734	
2606	0	32725	
2607	0	32712	
2608	0	32752	
2609	0	32760	
2610	0	32780	
2611	0	32741	
2612	0	32840	
2613	0	32828	
2614	0	32781	
2615	0	32812	
2616	0	32854	
2617	0	32816	
2618	0	32822	
2619	0	32816	
2620	0	32880	
2621	0	32896	
2622	0	32836	
2623	0	32736	
2624	0	32744	
2625	0	32768	
2626	0	32728	
2627	0	32724	
2628	0	32676	
2629	0	32756	
2630	0	32780	
2631	0	32768	
2632	0	32788	
2633	0	32820	
2634	0	32778	
2635	0	32804	
2636	0	32776	
2637	0	32768	
2638	0	32816	
2639	0	32840	
2640	0	32812	
2641	0	32820	
2642	0	32765	
2643	0	32744	
2644	0	32824	
2645	0	32744	
2646	0	32696	
2647	0	32752	
2648	0	32726	
2649	0	32708	
2650	0	32752	
2651	0	32784	
2652	0	32804	
2653	0	32852	
2654	0	32820	
2655	0	32793	
2656	0	32832	
2657	0	32820	
2658	0	32792	
2659	0	32776	
2660	0	32848	
2661	0	32780	
2662	0	32776	
2663	0	32732	
2664	0	32700	
2665	0	32820	
2666	0	32733	
2667	0	32692	
2668	0	32700	
2669	0	32840	
2670	0	32784	
2671	0	32772	
2672	0	32800	
2673	0	32840	
2674	0	32780	
2675	0	32808	
2676	0	32736	
2677	0	32824	
2678	0	32828	
2679	0	32808	
2680	0	32820	
2681	0	32854	
2682	0	32800	
2683	0	32744	
2684	0	32680	
2685	0	32736	
2686	0	32746	
2687	0	32652	
2688	0	32700	
2689	0	32801	
2690	0	32736	
2691	0	32800	
2692	0	32852	
2693	0	32772	
2694	0	32792	
2695	0	32752	
2696	0	32836	
2697	0	32796	
2698	0	32892	
2699	0	32792	
2700	0	32828	
2701	0	32812	
2702	0	32756	
2703	0	32738	
2704	0	32834	
2705	0	32768	
2706	0	32784	
2707	0	32676	
2708	0	32664	
2709	0	32716	
2710	0	32760	
2711	0	32836	
2712	0	32888	
2713	0	32848	
2714	0	32748	
2715	0	32744	
2716	0	32836	
2717	0	32720	
2718	0	32828	
2719	0	32784	
2720	0	32895	
2721	0	32781	
2722	0	32781	
2723	0	32776	
2724	0	32712	
2725	0	32740	
2726	0	32792	
2727	0	32628	
2728	0	32676	
2729	0	32736	
2730	0	32670	
2731	0	32668	
2732	0	32798	
2733	0	32788	
2734	0	32824	
2735	0	32760	
2736	0	32840	
2737	0	32732	
2738	0	32721	
2739	0	32796	
2740	0	32748	
2741	0	32804	
2742	0	32820	
2743	0	32852	
2744	0	32776	
2745	0	32777	
2746	0	32748	
2747	0	32736	
2748	0	32692	
2749	0	32808	
2750	0	32796	
2751	0	32864	
2752	0	32856	
2753	0	32888	
2754	0	32832	
2755	0	32804	
2756	0	32838	
2757	0	32804	
2758	0	32853	
2759	0	32840	
2760	0	32832	
2761	0	32872	
2762	0	32792	
2763	0	32716	
2764	0	32804	
2765	0	32736	
2766	0	32760	
2767	0	32804	
2768	0	32775	
2769	0	32772	
2770	0	32740	
2771	0	32780	
2772	0	32838	
2773	0	32728	
2774	0	32808	
2775	0	32796	
2776	0	32780	
2777	0	32785	
2778	0	32790	
2779	0	32712	
2780	0	32772	
2781	0	32756	
2782	0	32756	
2783	0	32757	
2784	0	32744	
2785	0	32720	
2786	0	32669	
2787	0	32712	
2788	0	32788	
2789	0	32732	
2790	0	32724	
2791	0	32808	
2792	0	32776	
2793	0	32769	
2794	0	32772	
2795	0	32798	
2796	0	32784	
2797	0	32796	
2798	0	32804	
2799	0	32832	
2800	0	32832	
2801	0	32908	
2802	0	32762	
2803	0	32764	
2804	0	32704	
2805	0	32720	
2806	0	32704	
2807	0	32636	
2808	0	32748	
2809	0	32812	
2810	0	32797	
2811	0	32804	
2812	0	32756	
2813	0	32900	
2814	0	32840	
2815	0	32756	
2816	0	32832	
2817	0	32804	
2818	0	32760	
2819	0	32788	
2820	0	32832	
2821	0	32828	
2822	0	32812	
2823	0	32764	
2824	0	32768	
2825	0	32804	
2826	0	32749	
2827	0	32720	
2828	0	32784	
2829	0	32740	
2830	0	32792	
2831	0	32789	
2832	0	32774	
2833	0	32812	
2834	0	32852	
2835	0	32764	
2836	0	32832	
2837	0	32776	
2838	0	32854	
2839	0	32804	
2840	0	32775	
2841	0	32832	
2842	0	32818	
2843	0	32724	
2844	0	32772	
2845	0	32676	
2846	0	32670	
2847	0	32668	
2848	0	32712	
2849	0	32812	
2850	0	32800	
2851	0	32824	
2852	0	32824	
2853	0	32844	
2854	0	32768	
2855	0	32804	
2856	0	32724	
2857	0	32804	
2858	0	32816	
2859	0	32828	
2860	0	32762	
2861	0	32808	
2862	0	32816	
2863	0	32796	
2864	0	32737	
2865	0	32753	
2866	0	32724	
2867	0	32704	
2868	0	32704	
2869	0	32828	
2870	0	32853	
2871	0	32864	
2872	0	32805	
2873	0	32780	
2874	0	32804	
2875	0	32809	
2876	0	32740	
2877	0	32748	
2878	0	32820	
2879	0	32764	
2880	0	32744	
2881	0	32868	
2882	0	32868	
2883	0	32744	
2884	0	32804	
2885	0	32752	
2886	0	32684	
2887	0	32720	
2888	0	32721	
2889	0	32740	
2890	0	32812	
2891	0	32768	
2892	0	32836	
2893	0	32800	
2894	0	32748	
2895	0	32732	
2896	0	32790	
2897	0	32808	
2898	0	32828	
2899	0	32820	
2900	0	32900	
2901	0	32840	
2902	0	32774	
2903	0	32736	
2904	0	32694	
2905	0	32660	
2906	0	32688	
2907	0	32728	
2908	0	32800	
2909	0	32701	
2910	0	32764	
2911	0	32789	
2912	0	32792	
2913	0	32780	
2914	0	32804	
2915	0	32776	
2916	0	32808	
2917	0	32869	
2918	0	32740	
2919	0	32848	
2920	0	32788	
2921	0	32902	
2922	0	32756	
2923	0	32820	
2924	0	32756	
2925	0	32736	
2926	0	32756	
2927	0	32712	
2928	0	32712	
2929	0	32736	
2930	0	32834	
2931	0	32740	
2932	0	32844	
2933	0	32788	
2934	0	32792	
2935	0	32780	
2936	0	32823	
2937	0	32736	
2938	0	32752	
2939	0	32830	
2940	0	32820	
2941	0	32756	
2942	0	32828	
2943	0	32768	
2944	0	32775	
2945	0	32668	
2946	0	32732	
2947	0	32792	
2948	0	32756	
2949	0	32704	
2950	0	32784	
2951	0	32758	
2952	0	32804	
2953	0	32864	
2954	0	32852	
2955	0	32708	
2956	0	32798	
2957	0	32764	
2958	0	32797	
2959	0	32896	
2960	0	32868	
2961	0	32908	
2962	0	32764	
2963	0	32748	
2964	0	32688	
2965	0	32736	
2966	0	32728	
2967	0	32708	
2968	0	32748	
2969	0	32769	
2970	0	32828	
2971	0	32765	
2972	0	32805	
2973	0	32769	
2974	0	32820	
2975	0	32812	
2976	0	32808	
2977	0	32768	
2978	0	32792	
2979	0	32792	
2980	0	32792	
2981	0	32904	
2982	0	32832	
2983	0	32780	
2984	0	32696	
2985	0	32704	
2986	0	32748	
2987	0	32729	
2988	0	32712	
2989	0	32736	
2990	0	32780	
2991	0	32752	
2992	0	32812	
2993	0	32788	
2994	0	32733	
2995	0	32788	
2996	0	32820	
2997	0	32816	
2998	0	32812	
2999	0	32848	
3000	0	32840	
3001	0	32788	
3002	0	32804	
3003	0	32740	
3004	0	32724	
3005	0	32704	
3006	0	32728	
3007	0	32680	
3008	0	32784	
3009	0	32789	
3010	0	32746	
3011	0	32736	
3012	0	32800	
3013	0	32804	
3014	0	32856	
3015	0	32820	
3016	0	32814	
3017	0	32812	
3018	0	32740	
3019	0	32820	
3020	0	32840	
3021	0	32868	
3022	0	32775	
3023	0	32748	
3024	0	32744	
3025	0	32768	
3026	0	32716	
3027	0	32736	
3028	0	32765	
3029	0	32756	
3030	0	32796	
3031	0	32844	
3032	0	32816	
3033	0	32812	
3034	0	32804	
3035	0	32796	
3036	0	32800	
3037	0	32760	
3038	0	32828	
3039	0	32804	
3040	0	32858	
3041	0	32876	
3042	0	32724	
3043	0	32694	
3044	0	32764	
3045	0	32692	
3046	0	32765	
3047	0	32760	
3048	0	32814	
3049	0	32746	
3050	0	32852	
3051	0	32756	
3052	0	32772	
3053	0	32840	
3054	0	32852	
3055	0	32780	
3056	0	32772	
3057	0	32788	
3058	0	32790	
3059	0	32828	
3060	0	32864	
3061	0	32776	
3062	0	32796	
3063	0	32756	
3064	0	32772	
3065	0	32737	
3066	0	32760	
3067	0	32756	
3068	0	32720	
3069	0	32744	
3070	0	32732	
3071	0	32748	
3072	0	32812	
3073	0	32784	
3074	0	32844	
3075	0	32796	
3076	0	32816	
3077	0	32844	
3078	0	32784	
3079	0	32814	
3080	0	32852	
3081	0	32812	
3082	0	32758	
3083	0	32676	
3084	0	32732	
3085	0	32793	
3086	0	32794	
3087	0	32705	
3088	0	32716	
3089	0	32733	
3090	0	32770	
3091	0	32772	
3092	0	32772	
3093	0	32832	
3094	0	32826	
3095	0	32760	
3096	0	32816	
3097	0	32808	
3098	0	32792	
3099	0	32876	
3100	0	32800	
3101	0	32756	
3102	0	32792	
3103	0	32764	
3104	0	32789	
3105	0	32756	
3106	0	32662	
3107	0	32734	
3108	0	32716	
3109	0	32716	
3110	0	32836	
3111	0	32716	
3112	0	32816	
3113	0	32836	
3114	0	32824	
3115	0	32716	
3116	0	32768	
3117	0	32820	
3118	0	32912	
3119	0	32820	
3120	0	32864	
3121	0	32798	
3122	0	32808	
3123	0	32752	
3124	0	32752	
3125	0	32712	
3126	0	32708	
3127	0	32724	
3128	0	32716	
3129	0	32736	
3130	0	32784	
3131	0	32724	
3132	0	32820	
3133	0	32804	
3134	0	32824	
3135	0	32820	
3136	0	32780	
3137	0	32800	
3138	0	32828	
3139	0	32812	
3140	0	32804	
3141	0	32793	
3142	0	32801	
3143	0	32740	
3144	0	32672	
3145	0	32732	
3146	0	32676	
3147	0	32714	
3148	0	32744	
3149	0	32740	
3150	0	32804	
3151	0	32788	
3152	0	32793	
3153	0	32832	
3154	0	32792	
3155	0	32840	
3156	0	32813	
3157	0	32848	
3158	0	32764	
3159	0	32796	
3160	0	32868	
3161	0	32860	
3162	0	32836	
3163	0	32796	
3164	0	32724	
3165	0	32692	
3166	0	32764	
3167	0	32712	
3168	0	32720	
3169	0	32732	
3170	0	32800	
3171	0	32744	
3172	0	32804	
3173	0	32812	
3174	0	32868	
3175	0	32768	
3176	0	32760	
3177	0	32888	
3178	0	32796	
3179	0	32776	
3180	0	32860	
3181	0	32844	
3182	0	32812	
3183	0	32740	
3184	0	32772	
3185	0	32744	
3186	0	32680	
3187	0	32756	
3188	0	32748	
3189	0	32788	
3190	0	32732	
3191	0	32790	
3192	0	32732	
3193	0	32828	
3194	0	32824	
3195	0	32816	
3196	0	32830	
3197	0	32774	
3198	0	32788	
3199	0	32832	
3200	0	32836	
3201	0	32784	
3202	0	32743	
3203	0	32745	
3204	0	32744	
3205	0	32736	
3206	0	32716	
3207	0	32776	
3208	0	32760	
3209	0	32836	
3210	0	32780	
3211	0	32846	
3212	0	32800	
3213	0	32832	
3214	0	32800	
3215	0	32768	
3216	0	32778	
3217	0	32780	
3218	0	32774	
3219	0	32796	
3220	0	32872	
3221	0	32836	
3222	0	32792	
3223	0	32709	
3224	0	32732	
3225	0	32760	
3226	0	32744	
3227	0	32732	
3228	0	32743	
3229	0	32758	
3230	0	32813	
3231	0	32752	
3232	0	32828	
3233	0	32756	
3234	0	32804	
3235	0	32829	
3236	0	32780	
3237	0	32785	
3238	0	32836	
3239	0	32800	
3240	0	32792	
3241	0	32836	
3242	0	32808	
3243	0	32804	
3244	0	32768	
3245	0	32712	
3246	0	32740	
3247	0	32694	
3248	0	32700	
3249	0	32758	
3250	0	32798	
3251	0	32756	
3252	0	32806	
3253	0	32816	
3254	0	32804	
3255	0	32781	
3256	0	32784	
3257	0	32786	
3258	0	32812	
3259	0	32802	
3260	0	32824	
3261	0	32780	
3262	0	32808	
3263	0	32716	
3264	0	32775	
3265	0	32788	
3266	0	32668	
3267	0	32785	
3268	0	32708	
3269	0	32757	
3270	0	32776	
3271	0	32792	
3272	0	32800	
3273	0	32848	
3274	0	32822	
3275	0	32820	
3276	0	32804	
3277	0	32800	
3278	0	32844	
3279	0	32799	
3280	0	32812	
3281	0	32741	
3282	0	32776	
3283	0	32777	
3284	0	32836	
3285	0	32820	
3286	0	32768	
3287	0	32696	
3288	0	32772	
3289	0	32758	
3290	0	32736	
3291	0	32796	
3292	0	32800	
3293	0	32860	
3294	0	32772	
3295	0	32780	
3296	0	32808	
3297	0	32792	
3298	0	32832	
3299	0	32864	
3300	0	32844	
3301	0	32804	
3302	0	32768	
3303	0	32756	
3304	0	32688	
3305	0	32749	
3306	0	32704	
3307	0	32688	
3308	0	32794	
3309	0	32760	
3310	0	32744	
3311	0	32784	
3312	0	32836	
3313	0	32812	
3314	0	32712	
3315	0	32768	
3316	0	32796	
3317	0	32804	
3318	0	32825	
3319	0	32793	
3320	0	32876	
3321	0	32880	
3322	0	32744	
3323	0	32736	
3324	0	32732	
3325	0	32720	
3326	0	32768	
3327	0	32773	
3328	0	32748	
3329	0	32836	
3330	0	32824	
3331	0	32788	
3332	0	32780	
3333	0	32796	
3334	0	32796	
3335	0	32832	
3336	0	32804	
3337	0	32814	
3338	0	32760	
3339	0	32872	
3340	0	32832	
3341	0	32814	
3342	0	32728	
3343	0	32733	
3344	0	32712	
3345	0	32748	
3346	0	32744	
3347	0	32704	
3348	0	32740	
3349	0	32788	
3350	0	32764	
3351	0	32692	
3352	0	32712	
3353	0	32784	
3354	0	32756	
3355	0	32790	
3356	0	32798	
3357	0	32748	
3358	0	32749	
3359	0	32802	
3360	0	32801	
3361	0	32780	
3362	0	32774	
3363	0	32744	
3364	0	32720	
3365	0	32716	
3366	0	32734	
3367	0	32736	
3368	0	32720	
3369	0	32796	
3370	0	32848	
3371	0	32832	
3372	0	32944	
3373	0	32876	
3374	0	32812	
3375	0	32822	
3376	0	32868	
3377	0	32844	
3378	0	32864	
3379	0	32860	
3380	0	32852	
3381	0	32814	
3382	0	32768	
3383	0	32833	
3384	0	32805	
3385	0	32824	
3386	0	32640	
3387	0	32716	
3388	0	32802	
3389	0	32793	
3390	0	32696	
3391	0	32840	
3392	0	32808	
3393	0	32784	
3394	0	32792	
3395	0	32860	
3396	0	32856	
3397	0	32812	
3398	0	32804	
3399	0	32752	
3400	0	32792	
3401	0	32828	
3402	0	32776	
3403	0	32740	
3404	0	32692	
3405	0	32744	
3406	0	32736	
3407	0	32684	
3408	0	32729	
3409	0	32748	
3410	0	32766	
3411	0	32748	
3412	0	32752	
3413	0	32792	
3414	0	32845	
3415	0	32784	
3416	0	32820	
3417	0	32848	
3418	0	32740	
3419	0	32793	
3420	0	32848	
3421	0	32788	
3422	0	32720	
3423	0	32812	
3424	0	32744	
3425	0	32832	
3426	0	32740	
3427	0	32724	
3428	0	32716	
3429	0	32748	
3430	0	32768	
3431	0	32753	
3432	0	32802	
3433	0	32824	
3434	0	32788	
3435	0	32776	
3436	0	32863	
3437	0	32828	
3438	0	32760	
3439	0	32752	
3440	0	32868	
3441	0	32868	
3442	0	32728	
3443	0	32716	
3444	0	32812	
3445	0	32734	
3446	0	32692	
3447	0	32684	
3448	0	32742	
3449	0	32714	
3450	0	32776	
3451	0	32808	
3452	0	32840	
3453	0	32762	
3454	0	32824	
3455	0	32772	
3456	0	32820	
3457	0	32840	
3458	0	32832	
3459	0	32792	
3460	0	32830	
3461	0	32744	
3462	0	32800	
3463	0	32740	
3464	0	32708	
3465	0	32764	
3466	0	32736	
3467	0	32724	
3468	0	32756	
3469	0	32748	
3470	0	32800	
3471	0	32804	
3472	0	32808	
3473	0	32804	
3474	0	32876	
3475	0	32784	
3476	0	32752	
3477	0	32764	
3478	0	32744	
3479	0	32806	
3480	0	32821	
3481	0	32820	
3482	0	32736	
3483	0	32750	
3484	0	32788	
3485	0	32788	
3486	0	32784	
3487	0	32704	
3488	0	32736	
3489	0	32724	
3490	0	32840	
3491	0	32736	
3492	0	32814	
3493	0	32776	
3494	0	32756	
3495	0	32796	
3496	0	32848	
3497	0	32832	
3498	0	32784	
3499	0	32812	
3500	0	32876	
3501	0	32752	
3502	0	32792	
3503	0	32748	
3504	0	32756	
3505	0	32692	
3506	0	32772	
3507	0	32768	
3508	0	32672	
3509	0	32764	
3510	0	32818	
3511	0	32780	
3512	0	32832	
3513	0	32832	
3514	0	32792	
3515	0	32790	
3516	0	32817	
3517	0	32828	
3518	0	32780	
3519	0	32741	
3520	0	32832	
3521	0	32840	
3522	0	32788	
3523	0	32680	
3524	0	32749	
3525	0	32751	
3526	0	32687	
3527	0	32704	
3528	0	32748	
3529	0	32824	
3530	0	32804	
3531	0	32709	
3532	0	32720	
3533	0	32744	
3534	0	32804	
3535	0	32788	
3536	0	32876	
3537	0	32780	
3538	0	32858	
3539	0	32820	
3540	0	32840	
3541	0	32812	
3542	0	32804	
3543	0	32736	
3544	0	32760	
3545	0	32752	
3546	0	32736	
3547	0	32780	
3548	0	32664	
3549	0	32732	
3550	0	32788	
3551	0	32808	
3552	0	32764	
3553	0	32784	
3554	0	32828	
3555	0	32746	
3556	0	32836	
3557	0	32804	
3558	0	32764	
3559	0	32788	
3560	0	32848	
3561	0	32924	
3562	0	32748	
3563	0	32749	
3564	0	32700	
3565	0	32705	
3566	0	32696	
3567	0	32768	
3568	0	32708	
3569	0	32768	
3570	0	32764	
3571	0	32768	
3572	0	32800	
3573	0	32748	
3574	0	32800	
3575	0	32748	
3576	0	32892	
3577	0	32800	
3578	0	32805	
3579	0	32820	
3580	0	32768	
3581	0	32852	
3582	0	32832	
3583	0	32760	
3584	0	32788	
3585	0	32728	
3586	0	32761	
3587	0	32676	
3588	0	32712	
3589	0	32724	
3590	0	32836	
3591	0	32756	
3592	0	32832	
3593	0	32772	
3594	0	32865	
3595	0	32848	
3596	0	32788	
3597	0	32808	
3598	0	32784	
3599	0	32776	
3600	0	32798	
3601	0	32868	
3602	0	32808	
3603	0	32744	
3604	0	32732	
3605	0	32712	
3606	0	32636	
3607	0	32684	
3608	0	32720	
3609	0	32761	
3610	0	32780	
3611	0	32760	
3612	0	32772	
3613	0	32781	
3614	0	32808	
3615	0	32800	
3616	0	32860	
3617	0	32812	
3618	0	32804	
3619	0	32796	
3620	0	32781	
3621	0	32824	
3622	0	32838	
3623	0	32712	
3624	0	32785	
3625	0	32797	
3626	0	32684	
3627	0	32660	
3628	0	32716	
3629	0	32776	
3630	0	32744	
3631	0	32772	
3632	0	32769	
3633	0	32821	
3634	0	32824	
3635	0	32814	
3636	0	32852	
3637	0	32796	
3638	0	32846	
3639	0	32832	
3640	0	32816	
3641	0	32848	
3642	0	32793	
3643	0	32776	
3644	0	32720	
3645	0	32728	
3646	0	32712	
3647	0	32700	
3648	0	32692	
3649	0	32760	
3650	0	32828	
3651	0	32768	
3652	0	32824	
3653	0	32756	
3654	0	32844	
3655	0	32808	
3656	0	32808	
3657	0	32762	
3658	0	32800	
3659	0	32800	
3660	0	32820	
3661	0	32868	
3662	0	32752	
3663	0	32720	
3664	0	32776	
3665	0	32736	
3666	0	32677	
3667	0	32776	
3668	0	32724	
3669	0	32788	
3670	0	32800	
3671	0	32772	
3672	0	32792	
3673	0	32764	
3674	0	32844	
3675	0	32864	
3676	0	32824	
3677	0	32797	
3678	0	32808	
3679	0	32742	
3680	0	32856	
3681	0	32800	
3682	0	32748	
3683	0	32716	
3684	0	32781	
3685	0	32777	
3686	0	32732	
3687	0	32704	
3688	0	32744	
3689	0	32712	
3690	0	32756	
3691	0	32832	
3692	0	32852	
3693	0	32782	
3694	0	32714	
3695	0	32824	
3696	0	32774	
3697	0	32856	
3698	0	32856	
3699	0	32840	
3700	0	32808	
3701	0	32785	
3702	0	32785	
3703	0	32724	
3704	0	32744	
3705	0	32784	
3706	0	32756	
3707	0	32696	
3708	0	32740	
3709	0	32728	
3710	0	32792	
3711	0	32764	
3712	0	32808	
3713	0	32836	
3714	0	32800	
3715	0	32764	
3716	0	32816	
3717	0	32800	
3718	0	32813	
3719	0	32828	
3720	0	32844	
3721	0	32754	
3722	0	32718	
3723	0	32734	
3724	0	32732	
3725	0	32820	
3726	0	32708	
3727	0	32700	
3728	0	32732	
3729	0	32766	
3730	0	32788	
3731	0	32737	
3732	0	32864	
3733	0	32796	
3734	0	32796	
3735	0	32856	
3736	0	32864	
3737	0	32768	
3738	0	32740	
3739	0	32816	
3740	0	32796	
3741	0	32868	
3742	0	32832	
3743	0	32830	
3744	0	32804	
3745	0	32653	
3746	0	32676	
3747	0	32724	
3748	0	32708	
3749	0	32760	
3750	0	32764	
3751	0	32789	
3752	0	32784	
3753	0	32872	
3754	0	32773	
3755	0	32808	
3756	0	32745	
3757	0	32808	
3758	0	32848	
3759	0	32816	
3760	0	32830	
3761	0	32844	
3762	0	32724	
3763	0	32756	
3764	0	32706	
3765	0	32780	
3766	0	32684	
3767	0	32716	
3768	0	32772	
3769	0	32808	
3770	0	32732	
3771	0	32856	
3772	0	32824	
3773	0	32788	
3774	0	32786	
3775	0	32780	
3776	0	32836	
3777	0	32868	
3778	0	32793	
3779	0	32741	
3780	0	32804	
3781	0	32876	
3782	0	32844	
3783	0	32708	
3784	0	32668	
3785	0	32776	
3786	0	32764	
3787	0	32760	
3788	0	32720	
3789	0	32740	
3790	0	32796	
3791	0	32788	
3792	0	32750	
3793	0	32716	
3794	0	32848	
3795	0	32836	
3796	0	32790	
3797	0	32748	
3798	0	32853	
3799	0	32792	
3800	0	32820	
3801	0	32812	
3802	0	32773	
3803	0	32772	
3804	0	32752	
3805	0	32778	
3806	0	32756	
3807	0	32672	
3808	0	32692	
3809	0	32760	
3810	0	32781	
3811	0	32832	
3812	0	32720	
3813	0	32812	
3814	0	32828	
3815	0	32816	
3816	0	32813	
3817	0	32764	
3818	0	32768	
3819	0	32728	
3820	0	32824	
3821	0	32808	
3822	0	32765	
3823	0	32748	
3824	0	32756	
3825	0	32808	
3826	0	32708	
3827	0	32740	
3828	0	32704	
3829	0	32740	
3830	0	32740	
3831	0	32812	
3832	0	32877	
3833	0	32772	
3834	0	32824	
3835	0	32866	
3836	0	32780	
3837	0	32860	
3838	0	32832	
3839	0	32792	
3840	0	32821	
3841	0	32828	
3842	0	32748	
3843	0	32692	
3844	0	32733	
3845	0	32752	
3846	0	32808	
3847	0	32696	
3848	0	32700	
3849	0	32780	
3850	0	32816	
3851	0	32752	
3852	0	32796	
3853	0	32784	
3854	0	32836	
3855	0	32876	
3856	0	32780	
3857	0	32700	
3858	0	32786	
3859	0	32824	
3860	0	32812	
3861	0	32768	
3862	0	32760	
3863	0	32797	
3864	0	32768	
3865	0	32724	
3866	0	32816	
3867	0	32724	
3868	0	32716	
3869	0	32720	
3870	0	32728	
3871	0	32772	
3872	0	32816	
3873	0	32796	
3874	0	32796	
3875	0	32804	
3876	0	32816	
3877	0	32796	
3878	0	32780	
3879	0	32802	
3880	0	32880	
3881	0	32868	
3882	0	32732	
3883	0	32740	
3884	0	32744	
3885	0	32724	
3886	0	32736	
3887	0	32740	
3888	0	32732	
3889	0	32756	
3890	0	32816	
3891	0	32780	
3892	0	32804	
3893	0	32796	
3894	0	32864	
3895	0	32764	
3896	0	32868	
3897	0	32888	
3898	0	32784	
3899	0	32748	
3900	0	32836	
3901	0	32820	
3902	0	32804	
3903	0	32680	
3904	0	32720	
3905	0	32736	
3906	0	32704	
3907	0	32724	
3908	0	32764	
3909	0	32753	
3910	0	32736	
3911	0	32734	
3912	0	32836	
3913	0	32832	
3914	0	32804	
3915	0	32856	
3916	0	32829	
3917	0	32764	
3918	0	32800	
3919	0	32804	
3920	0	32828	
3921	0	32837	
3922	0	32760	
3923	0	32702	
3924	0	32702	
3925	0	32796	
3926	0	32729	
3927	0	32708	
3928	0	32745	
3929	0	32780	
3930	0	32728	
3931	0	32744	
3932	0	32768	
3933	0	32776	
3934	0	32766	
3935	0	32844	
3936	0	32832	
3937	0	32812	
3938	0	32860	
3939	0	32820	
3940	0	32804	
3941	0	32856	
3942	0	32740	
3943	0	32772	
3944	0	32804	
3945	0	32784	
3946	0	32705	
3947	0	32760	
3948	0	32680	
3949	0	32804	
3950	0	32796	
3951	0	32792	
3952	0	32754	
3953	0	32757	
3954	0	32808	
3955	0	32844	
3956	0	32856	
3957	0	32792	
3958	0	32820	
3959	0	32800	
3960	0	32804	
3961	0	32848	
3962	0	32809	
3963	0	32840	
3964	0	32681	
3965	0	32720	
3966	0	32676	
3967	0	32680	
3968	0	32704	
3969	0	32756	
3970	0	32821	
3971	0	32808	
3972	0	32848	
3973	0	32852	
3974	0	32776	
3975	0	32812	
3976	0	32812	
3977	0	32812	
3978	0	32816	
3979	0	32828	
3980	0	32780	
3981	0	32744	
3982	0	32762	
3983	0	32772	
3984	0	32756	
3985	0	32673	
3986	0	32692	
3987	0	32719	
3988	0	32634	
3989	0	32696	
3990	0	32716	
3991	0	32785	
3992	0	32824	
3993	0	32824	
3994	0	32772	
3995	0	32756	
3996	0	32801	
3997	0	32836	
3998	0	32753	
3999	0	32816	
4000	0	32888	
4001	0	32820	
4002	0	32856	
4003	0	32836	
4004	0	32780	
4005	0	32824	
4006	0	32792	
4007	0	32812	
4008	0	32760	
4009	0	32764	
4010	0	32812	
4011	0	32824	
4012	0	32808	
4013	0	32791	
4014	0	32836	
4015	0	32764	
4016	0	32864	
4017	0	32882	
4018	0	32816	
4019	0	32784	
4020	0	32808	
4021	0	32804	
4022	0	32820	
4023	0	32800	
4024	0	32732	
4025	0	32661	
4026	0	32724	
4027	0	32704	
4028	0	32772	
4029	0	32704	
4030	0	32736	
4031	0	32785	
4032	0	32776	
4033	0	32784	
4034	0	32800	
4035	0	32720	
4036	0	32776	
4037	0	32812	
4038	0	32814	
4039	0	32837	
4040	0	32880	
4041	0	32772	
4042	0	32768	
4043	0	32832	
4044	0	32712	
4045	0	32768	
4046	0	32728	
4047	0	32716	
4048	0	32697	
4049	0	32712	
4050	0	32756	
4051	0	32776	
4052	0	32846	
4053	0	32772	
4054	0	32820	
4055	0	32816	
4056	0	32792	
4057	0	32772	
4058	0	32772	
4059	0	32802	
4060	0	32824	
4061	0	32808	
4062	0	32832	
4063	0	32792	
4064	0	32804	
4065	0	32692	
4066	0	32708	
4067	0	32724	
4068	0	32736	
4069	0	32760	
4070	0	32704	
4071	0	32784	
4072	0	32856	
4073	0	32756	
4074	0	32816	
4075	0	32840	
4076	0	32778	
4077	0	32765	
4078	0	32812	
4079	0	32736	
4080	0	32834	
4081	0	32844	
4082	0	32796	
4083	0	32794	
4084	0	32752	
4085	0	32774	
4086	0	32760	
4087	0	32725	
4088	0	32726	
4089	0	32712	
4090	0	32760	
4091	0	32788	
4092	0	32796	
4093	0	32768	
4094	0	32762	
4095	0	32780	
4096	0	32852	
4097	0	32792	
4098	0	32740	
4099	0	32868	
4100	0	32824	
4101	0	32912	
4102	0	32812	
4103	0	32768	
4104	0	32730	
4105	0	32762	
4106	0	32711	
4107	0	32753	
4108	0	32750	
4109	0	32758	
4110	0	32729	
4111	0	32828	
4112	0	32744	
4113	0	32824	
4114	0	32845	
4115	0	32804	
4116	0	32744	
4117	0	32804	
4118	0	32800	
4119	0	32844	
4120	0	32828	
4121	0	32852	
4122	0	32796	
4123	0	32785	
4124	0	32712	
4125	0	32704	
4126	0	32640	
4127	0	32756	
4128	0	32682	
4129	0	32762	
4130	0	32808	
4131	0	32780	
4132	0	32736	
4133	0	32736	
4134	0	32832	
4135	0	32852	
4136	0	32784	
4137	0	32772	
4138	0	32804	
4139	0	32740	
4140	0	32844	
4141	0	32860	
4142	0	32864	
4143	0	32812	
4144	0	32708	
4145	0	32712	
4146	0	32696	
4147	0	32788	
4148	0	32676	
4149	0	32751	
4150	0	32804	
4151	0	32748	
4152	0	32784	
4153	0	32832	
4154	0	32804	
4155	0	32820	
4156	0	32750	
4157	0	32804	
4158	0	32853	
4159	0	32788	
4160	0	32804	
4161	0	32860	
4162	0	32809	
4163	0	32708	
4164	0	32724	
4165	0	32736	
4166	0	32712	
4167	0	32716	
4168	0	32700	
4169	0	32768	
4170	0	32792	
4171	0	32716	
4172	0	32848	
4173	0	32812	
4174	0	32780	
4175	0	32860	
4176	0	32800	
4177	0	32808	
4178	0	32772	
4179	0	32804	
4180	0	32860	
4181	0	32816	
4182	0	32772	
4183	0	32760	
4184	0	32720	
4185	0	32720	
4186	0	32664	
4187	0	32817	
4188	0	32756	
4189	0	32796	
4190	0	32784	
4191	0	32772	
4192	0	32768	
4193	0	32800	
4194	0	32796	
4195	0	32836	
4196	0	32770	
4197	0	32846	
4198	0	32804	
4199	0	32832	
4200	0	32792	
4201	0	32789	
4202	0	32760	
4203	0	32737	
4204	0	32748	
4205	0	32688	
4206	0	32744	
4207	0	32725	
4208	0	32734	
4209	0	32717	
4210	0	32840	
4211	0	32792	
4212	0	32780	
4213	0	32788	
4214	0	32836	
4215	0	32824	
4216	0	32780	
4217	0	32812	
4218	0	32778	
4219	0	32836	
4220	0	32869	
4221	0	32864	
4222	0	32768	
4223	0	32776	
4224	0	32764	
4225	0	32760	
4226	0	32720	
4227	0	32660	
4228	0	32812	
4229	0	32720	
4230	0	32765	
4231	0	32761	
4232	0	32726	
4233	0	32820	
4234	0	32824	
4235	0	32796	
4236	0	32834	
4237	0	32832	
4238	0	32796	
4239	0	32784	
4240	0	32828	
4241	0	32864	
4242	0	32768	
4243	0	32749	
4244	0	32732	
4245	0	32684	
4246	0	32684	
4247	0	32660	
4248	0	32728	
4249	0	32748	
4250	0	32812	
4251	0	32844	
4252	0	32760	
4253	0	32858	
4254	0	32804	
4255	0	32756	
4256	0	32868	
4257	0	32780	
4258	0	32753	
4259	0	32740	
4260	0	32884	
4261	0	32832	
4262	0	32816	
4263	0	32768	
4264	0	32808	
4265	0	32748	
4266	0	32704	
4267	0	32748	
4268	0	32712	
4269	0	32745	
4270	0	32760	
4271	0	32750	
4272	0	32828	
4273	0	32804	
4274	0	32816	
4275	0	32820	
4276	0	32806	
4277	0	32832	
4278	0	32783	
4279	0	32777	
4280	0	32792	
4281	0	32812	
4282	0	32796	
4283	0	32736	
4284	0	32764	
4285	0	32740	
4286	0	32750	
4287	0	32768	
4288	0	32692	
4289	0	32720	
4290	0	32732	
4291	0	32742	
4292	0	32748	
4293	0	32797	
4294	0	32848	
4295	0	32826	
4296	0	32788	
4297	0	32742	
4298	0	32820	
4299	0	32800	
4300	0	32828	
4301	0	32813	
4302	0	32804	
4303	0	32774	
4304	0	32780	
4305	0	32800	
4306	0	32704	
4307	0	32705	
4308	0	32668	
4309	0	32741	
4310	0	32796	
4311	0	32760	
4312	0	32788	
4313	0	32798	
4314	0	32772	
4315	0	32816	
4316	0	32816	
4317	0	32788	
4318	0	32808	
4319	0	32832	
4320	0	32872	
4321	0	32800	
4322	0	32836	
4323	0	32753	
4324	0	32736	
4325	0	32720	
4326	0	32792	
4327	0	32728	
4328	0	32744	
4329	0	32724	
4330	0	32764	
4331	0	32696	
4332	0	32800	
4333	0	32840	
4334	0	32876	
4335	0	32842	
4336	0	32796	
4337	0	32824	
4338	0	32826	
4339	0	32798	
4340	0	32824	
4341	0	32791	
4342	0	32836	
4343	0	32844	
4344	0	32768	
4345	0	32732	
4346	0	32752	
4347	0	32732	
4348	0	32620	
4349	0	32716	
4350	0	32788	
4351	0	32784	
4352	0	32832	
4353	0	32852	
4354	0	32741	
4355	0	32796	
4356	0	32804	
4357	0	32788	
4358	0	32804	
4359	0	32854	
4360	0	32820	
4361	0	32864	
4362	0	32853	
4363	0	32768	
4364	0	32680	
4365	0	32716	
4366	0	32740	
4367	0	32668	
4368	0	32740	
4369	0	32720	
4370	0	32804	
4371	0	32812	
4372	0	32772	
4373	0	32772	
4374	0	32809	
4375	0	32772	
4376	0	32836	
4377	0	32844	
4378	0	32812	
4379	0	32741	
4380	0	32788	
4381	0	32808	
4382	0	32772	
4383	0	32800	
4384	0	32781	
4385	0	32712	
4386	0	32734	
4387	0	32676	
4388	0	32686	
4389	0	32768	
4390	0	32824	
4391	0	32752	
4392	0	32797	
4393	0	32848	
4394	0	32772	
4395	0	32796	
4396	0	32864	
4397	0	32780	
4398	0	32820	
4399	0	32824	
4400	0	32804	
4401	0	32877	
4402	0	32768	
4403	0	32812	
4404	0	32800	
4405	0	32788	
4406	0	32696	
4407	0	32686	
4408	0	32724	
4409	0	32748	
4410	0	32828	
4411	0	32764	
4412	0	32788	
4413	0	32830	
4414	0	32816	
4415	0	32804	
4416	0	32796	
4417	0	32808	
4418	0	32740	
4419	0	32784	
4420	0	32836	
4421	0	32832	
4422	0	32752	
4423	0	32724	
4424	0	32804	
4425	0	32768	
4426	0	32720	
4427	0	32696	
4428	0	32648	
4429	0	32756	
4430	0	32804	
4431	0	32782	
4432	0	32832	
4433	0	32698	
4434	0	32844	
4435	0	32759	
4436	0	32812	
4437	0	32816	
4438	0	32788	
4439	0	32812	
4440	0	32924	
4441	0	32877	
4442	0	32816	
4443	0	32696	
4444	0	32734	
4445	0	32740	
4446	0	32678	
4447	0	32704	
4448	0	32696	
4449	0	32732	
4450	0	32840	
4451	0	32820	
4452	0	32800	
4453	0	32798	
4454	0	32840	
4455	0	32832	
4456	0	32772	
4457	0	32808	
4458	0	32840	
4459	0	32768	
4460	0	32844	
4461	0	32820	
4462	0	32750	
4463	0	32769	
4464	0	32732	
4465	0	32696	
4466	0	32708	
4467	0	32700	
4468	0	32736	
4469	0	32804	
4470	0	32824	
4471	0	32792	
4472	0	32800	
4473	0	32817	
4474	0	32777	
4475	0	32841	
4476	0	32820	
4477	0	32812	
4478	0	32788	
4479	0	32848	
4480	0	32880	
4481	0	32836	
4482	0	32740	
4483	0	32780	
4484	0	32796	
4485	0	32775	
4486	0	32724	
4487	0	32756	
4488	0	32672	
4489	0	32672	
4490	0	32788	
4491	0	32780	
4492	0	32788	
4493	0	32812	
4494	0	32801	
4495	0	32773	
4496	0	32804	
4497	0	32832	
4498	0	32772	
4499	0	32808	
4500	0	32800	
4501	0	32830	
4502	0	32808	
4503	0	32784	
4504	0	32688	
4505	0	32728	
4506	0	32716	
4507	0	32700	
4508	0	32709	
4509	0	32792	
4510	0	32740	
4511	0	32765	
4512	0	32792	
4513	0	32769	
4514	0	32796	
4515	0	32800	
4516	0	32800	
4517	0	32796	
4518	0	32815	
4519	0	32784	
4520	0	32808	
4521	0	32824	
4522	0	32780	
4523	0	32757	
4524	0	32776	
4525	0	32720	
4526	0	32712	
4527	0	32696	
4528	0	32748	
4529	0	32748	
4530	0	32792	
4531	0	32772	
4532	0	32792	
4533	0	32800	
4534	0	32852	
4535	0	32904	
4536	0	32820	
4537	0	32776	
4538	0	32758	
4539	0	32772	
4540	0	32856	
4541	0	32868	
4542	0	32764	
4543	0	32784	
4544	0	32712	
4545	0	32736	
4546	0	32784	
4547	0	32716	
4548	0	32736	
4549	0	32796	
4550	0	32736	
4551	0	32764	
4552	0	32788	
4553	0	32777	
4554	0	32812	
4555	0	32830	
4556	0	32764	
4557	0	32868	
4558	0	32788	
4559	0	32760	
4560	0	32824	
4561	0	32776	
4562	0	32832	
4563	0	32804	
4564	0	32740	
4565	0	32776	
4566	0	32804	
4567	0	32792	
4568	0	32648	
4569	0	32796	
4570	0	32761	
4571	0	32789	
4572	0	32768	
4573	0	32864	
4574	0	32808	
4575	0	32748	
4576	0	32848	
4577	0	32790	
4578	0	32814	
4579	0	32668	
4580	0	32820	
4581	0	32816	
4582	0	32860	
4583	0	32784	
4584	0	32788	
4585	0	32780	
4586	0	32728	
4587	0	32678	
4588	0	32660	
4589	0	32724	
4590	0	32816	
4591	0	32832	
4592	0	32784	
4593	0	32820	
4594	0	32799	
4595	0	32766	
4596	0	32804	
4597	0	32796	
4598	0	32766	
4599	0	32816	
4600	0	32812	
4601	0	32796	
4602	0	32724	
4603	0	32729	
4604	0	32744	
4605	0	32664	
4606	0	32725	
4607	0	32668	
4608	0	32656	
4609	0	32710	
4610	0	32768	
4611	0	32664	
4612	0	32656	
4613	0	32824	
4614	0	32868	
4615	0	32844	
4616	0	32772	
4617	0	32760	
4618	0	32752	
4619	0	32808	
4620	0	32860	
4621	0	32888	
4622	0	32760	
4623	0	32712	
4624	0	32772	
4625	0	32844	
4626	0	32836	
4627	0	32776	
4628	0	32702	
4629	0	32830	
4630	0	32820	
4631	0	32756	
4632	0	32864	
4633	0	32828	
4634	0	32808	
4635	0	32776	
4636	0	32796	
4637	0	32808	
4638	0	32824	
4639	0	32812	
4640	0	32796	
4641	0	32868	
4642	0	32848	
4643	0	32744	
4644	0	32808	
4645	0	32684	
4646	0	32700	
4647	0	32664	
4648	0	32712	
4649	0	32748	
4650	0	32797	
4651	0	32756	
4652	0	32784	
4653	0	32784	
4654	0	32808	
4655	0	32817	
4656	0	32801	
4657	0	32792	
4658	0	32796	
4659	0	32820	
4660	0	32804	
4661	0	32804	
4662	0	32812	
4663	0	32764	
4664	0	32748	
4665	0	32708	
4666	0	32789	
4667	0	32688	
4668	0	32728	
4669	0	32752	
4670	0	32812	
4671	0	32769	
4672	0	32736	
4673	0	32837	
4674	0	32796	
4675	0	32808	
4676	0	32818	
4677	0	32792	
4678	0	32791	
4679	0	32800	
4680	0	32820	
4681	0	32832	
4682	0	32784	
4683	0	32740	
4684	0	32724	
4685	0	32764	
4686	0	32764	
4687	0	32732	
4688	0	32708	
4689	0	32756	
4690	0	32840	
4691	0	32752	
4692	0	32800	
4693	0	32845	
4694	0	32818	
4695	0	32768	
4696	0	32784	
4697	0	32816	
4698	0	32837	
4699	0	32852	
4700	0	32824	
4701	0	32766	
4702	0	32796	
4703	0	32752	
4704	0	32732	
4705	0	32753	
4706	0	32800	
4707	0	32752	
4708	0	32776	
4709	0	32720	
4710	0	32813	
4711	0	32804	
4712	0	32716	
4713	0	32798	
4714	0	32802	
4715	0	32800	
4716	0	32784	
4717	0	32884	
4718	0	32888	
4719	0	32776	
4720	0	32805	
4721	0	32816	
4722	0	32781	
4723	0	32748	
4724	0	32736	
4725	0	32685	
4726	0	32704	
4727	0	32752	
4728	0	32696	
4729	0	32730	
4730	0	32816	
4731	0	32772	
4732	0	32769	
4733	0	32804	
4734	0	32828	
4735	0	32848	
4736	0	32844	
4737	0	32798	
4738	0	32832	
4739	0	32816	
4740	0	32748	
4741	0	32832	
4742	0	32797	
4743	0	32688	
4744	0	32729	
4745	0	32744	
4746	0	32732	
4747	0	32696	
4748	0	32700	
4749	0	32708	
4750	0	32810	
4751	0	32806	
4752	0	32814	
4753	0	32788	
4754	0	32780	
4755	0	32828	
4756	0	32812	
4757	0	32800	
4758	0	32752	
4759	0	32800	
4760	0	32912	
4761	0	32797	
4762	0	32756	
4763	0	32798	
4764	0	32829	
4765	0	32748	
4766	0	32748	
4767	0	32702	
4768	0	32700	
4769	0	32737	
4770	0	32729	
4771	0	32752	
4772	0	32792	
4773	0	32792	
4774	0	32796	
4775	0	32828	
4776	0	32828	
4777	0	32752	
4778	0	32748	
4779	0	32760	
4780	0	32856	
4781	0	32856	
4782	0	32848	
4783	0	32792	
4784	0	32768	
4785	0	32752	
4786	0	32740	
4787	0	32714	
4788	0	32756	
4789	0	32740	
4790	0	32685	
4791	0	32732	
4792	0	32772	
4793	0	32792	
4794	0	32756	
4795	0	32813	
4796	0	32792	
4797	0	32804	
4798	0	32804	
4799	0	32736	
4800	0	32808	
4801	0	32860	
4802	0	32804	
4803	0	32748	
4804	0	32776	
4805	0	32720	
4806	0	32728	
4807	0	32720	
4808	0	32752	
4809	0	32689	
4810	0	32736	
4811	0	32792	
4812	0	32816	
4813	0	32840	
4814	0	32788	
4815	0	32788	
4816	0	32796	
4817	0	32876	
4818	0	32742	
4819	0	32761	
4820	0	32780	
4821	0	32844	
4822	0	32796	
4823	0	32768	
4824	0	32740	
4825	0	32760	
4826	0	32748	
4827	0	32692	
4828	0	32682	
4829	0	32684	
4830	0	32788	
4831	0	32808	
4832	0	32764	
4833	0	32806	
4834	0	32828	
4835	0	32784	
4836	0	32785	
4837	0	32812	
4838	0	32897	
4839	0	32772	
4840	0	32856	
4841	0	32802	
4842	0	32804	
4843	0	32733	
4844	0	32724	
4845	0	32704	
4846	0	32762	
4847	0	32726	
4848	0	32700	
4849	0	32712	
4850	0	32717	
4851	0	32836	
4852	0	32780	
4853	0	32800	
4854	0	32824	
4855	0	32782	
4856	0	32800	
4857	0	32761	
4858	0	32804	
4859	0	32761	
4860	0	32848	
4861	0	32825	
4862	0	32784	
4863	0	32808	
4864	0	32788	
4865	0	32660	
4866	0	32774	
4867	0	32692	
4868	0	32744	
4869	0	32752	
4870	0	32817	
4871	0	32684	
4872	0	32764	
4873	0	32836	
4874	0	32808	
4875	0	32816	
4876	0	32828	
4877	0	32793	
4878	0	32788	
4879	0	32736	
4880	0	32844	
4881	0	32920	
4882	0	32796	
4883	0	32760	
4884	0	32788	
4885	0	32802	
4886	0	32684	
4887	0	32644	
4888	0	32752	
4889	0	32776	
4890	0	32828	
4891	0	32812	
4892	0	32792	
4893	0	32848	
4894	0	32808	
4895	0	32768	
4896	0	32759	
4897	0	32764	
4898	0	32840	
4899	0	32764	
4900	0	32840	
4901	0	32836	
4902	0	32852	
4903	0	32872	
4904	0	32748	
4905	0	32756	
4906	0	32740	
4907	0	32716	
4908	0	32788	
4909	0	32756	
4910	0	32800	
4911	0	32732	
4912	0	32732	
4913	0	32828	
4914	0	32804	
4915	0	32748	
4916	0	32808	
4917	0	32832	
4918	0	32864	
4919	0	32796	
4920	0	32884	
4921	0	32868	
4922	0	32768	
4923	0	32757	
4924	0	32680	
4925	0	32749	
4926	0	32752	
4927	0	32780	
4928	0	32708	
4929	0	32708	
4930	0	32760	
4931	0	32808	
4932	0	32724	
4933	0	32844	
4934	0	32837	
4935	0	32824	
4936	0	32800	
4937	0	32784	
4938	0	32760	
4939	0	32744	
4940	0	32900	
4941	0	32868	
4942	0	32812	
4943	0	32780	
4944	0	32704	
4945	0	32740	
4946	0	32712	
4947	0	32692	
4948	0	32732	
4949	0	32724	
4950	0	32832	
4951	0	32780	
4952	0	32813	
4953	0	32759	
4954	0	32817	
4955	0	32832	
4956	0	32792	
4957	0	32784	
4958	0	32800	
4959	0	32844	
4960	0	32824	
4961	0	32894	
4962	0	32856	
4963	0	32700	
4964	0	32704	
4965	0	32696	
4966	0	32660	
4967	0	32701	
4968	0	32736	
4969	0	32722	
4970	0	32740	
4971	0	32805	
4972	0	32768	
4973	0	32768	
4974	0	32836	
4975	0	32824	
4976	0	32847	
4977	0	32764	
4978	0	32828	
4979	0	32820	
4980	0	32816	
4981	0	32828	
4982	0	32770	
4983	0	32844	
4984	0	32732	
4985	0	32684	
4986	0	32688	
4987	0	32774	
4988	0	32736	
4989	0	32764	
4990	0	32781	
4991	0	32798	
4992	0	32733	
4993	0	32816	
4994	0	32794	
4995	0	32834	
4996	0	32772	
4997	0	32816	
4998	0	32836	
4999	0	32768	
5000	0	32804	
5001	0	32870	
5002	0	32828	
5003	0	32848	
5004	0	32724	
5005	0	32756	
5006	0	32719	
5007	0	32752	
5008	0	32732	
5009	0	32808	
5010	0	32780	
5011	0	32760	
5012	0	32756	
5013	0	32728	
5014	0	32820	
5015	0	32871	
5016	0	32793	
5017	0	32824	
5018	0	32812	
5019	0	32832	
5020	0	32740	
5021	0	32844	
5022	0	32772	
5023	0	32808	
5024	0	32708	
5025	0	32768	
5026	0	32768	
5027	0	32696	
5028	0	32696	
5029	0	32724	
5030	0	32756	
5031	0	32773	
5032	0	32776	
5033	0	32800	
5034	0	32772	
5035	0	32737	
5036	0	32852	
5037	0	32796	
5038	0	32824	
5039	0	32804	
5040	0	32832	
5041	0	32836	
5042	0	32805	
5043	0	32748	
5044	0	32748	
5045	0	32724	
5046	0	32728	
5047	0	32756	
5048	0	32724	
5049	0	32760	
5050	0	32781	
5051	0	32760	
5052	0	32816	
5053	0	32796	
5054	0	32812	
5055	0	32812	
5056	0	32802	
5057	0	32788	
5058	0	32816	
5059	0	32836	
5060	0	32868	
5061	0	32884	
5062	0	32808	
5063	0	32728	
5064	0	32621	
5065	0	32764	
5066	0	32752	
5067	0	32765	
5068	0	32712	
5069	0	32776	
5070	0	32752	
5071	0	32864	
5072	0	32824	
5073	0	32768	
5074	0	32812	
5075	0	32788	
5076	0	32732	
5077	0	32832	
5078	0	32780	
5079	0	32742	
5080	0	32896	
5081	0	32760	
5082	0	32797	
5083	0	32796	
5084	0	32782	
5085	0	32780	
5086	0	32760	
5087	0	32720	
5088	0	32652	
5089	0	32748	
5090	0	32740	
5091	0	32788	
5092	0	32813	
5093	0	32677	
5094	0	32817	
5095	0	32808	
5096	0	32861	
5097	0	32816	
5098	0	32828	
5099	0	32844	
5100	0	32868	
5101	0	32792	
5102	0	32784	
5103	0	32758	
5104	0	32764	
5105	0	32724	
5106	0	32769	
5107	0	32710	
5108	0	32776	
5109	0	32756	
5110	0	32733	
5111	0	32720	
5112	0	32768	
5113	0	32821	
5114	0	32788	
5115	0	32848	
5116	0	32748	
5117	0	32864	
5118	0	32776	
5119	0	32800	
5120	0	32816	
5121	0	32868	
5122	0	32828	
5123	0	32748	
5124	0	32684	
5125	0	32764	
5126	0	32732	
5127	0	32720	
5128	0	32720	
5129	0	32720	
5130	0	32724	
5131	0	32812	
5132	0	32840	
5133	0	32816	
5134	0	32729	
5135	0	32846	
5136	0	32864	
5137	0	32802	
5138	0	32804	
5139	0	32808	
5140	0	32808	
5141	0	32824	
5142	0	32828	
5143	0	32764	
5144	0	32748	
5145	0	32732	
5146	0	32724	
5147	0	32776	
5148	0	32704	
5149	0	32772	
5150	0	32774	
5151	0	32804	
5152	0	32749	
5153	0	32752	
5154	0	32812	
5155	0	32846	
5156	0	32784	
5157	0	32780	
5158	0	32776	
5159	0	32752	
5160	0	32809	
5161	0	32836	
5162	0	32840	
5163	0	32772	
5164	0	32782	
5165	0	32804	
5166	0	32732	
5167	0	32684	
5168	0	32720	
5169	0	32716	
5170	0	32700	
5171	0	32860	
5172	0	32764	
5173	0	32796	
5174	0	32764	
5175	0	32844	
5176	0	32828	
5177	0	32804	
5178	0	32828	
5179	0	32768	
5180	0	32836	
5181	0	32816	
5182	0	32756	
5183	0	32832	
5184	0	32800	
5185	0	32780	
5186	0	32804	
5187	0	32712	
5188	0	32716	
5189	0	32724	
5190	0	32797	
5191	0	32732	
5192	0	32816	
5193	0	32820	
5194	0	32725	
5195	0	32796	
5196	0	32816	
5197	0	32788	
5198	0	32836	
5199	0	32804	
5200	0	32884	
5201	0	32796	
5202	0	32812	
5203	0	32772	
5204	0	32716	
5205	0	32760	
5206	0	32728	
5207	0	32756	
5208	0	32760	
5209	0	32721	
5210	0	32740	
5211	0	32796	
5212	0	32808	
5213	0	32836	
5214	0	32960	
5215	0	32772	
5216	0	32733	
5217	0	32836	
5218	0	32792	
5219	0	32844	
5220	0	32728	
5221	0	32908	
5222	0	32940	
5223	0	32728	
5224	0	32668	
5225	0	32704	
5226	0	32768	
5227	0	32744	
5228	0	32654	
5229	0	32746	
5230	0	32929	
5231	0	32920	
5232	0	32936	
5233	0	32768	
5234	0	32676	
5235	0	32764	
5236	0	32860	
5237	0	33004	
5238	0	32969	
5239	0	32708	
5240	0	32496	
5241	0	32628	
5242	0	32644	
5243	0	32492	
5244	0	32700	
5245	0	32748	
5246	0	32664	
5247	0	32596	
5248	0	32320	
5249	0	32276	
5250	0	32492	
5251	0	32776	
5252	0	32916	
5253	0	33088	
5254	0	33080	
5255	0	33060	
5256	0	33128	
5257	0	32964	
5258	0	32912	
5259	0	32869	
5260	0	32762	
5261	0	32780	
5262	0	32764	
5263	0	32556	
5264	0	32516	
5265	0	32512	
5266	0	32508	
5267	0	32575	
5268	0	32817	
5269	0	33028	
5270	0	33076	
5271	0	33132	
5272	0	33176	
5273	0	32968	
5274	0	32964	
5275	0	32692	
5276	0	32725	
5277	0	32836	
5278	0	32845	
5279	0	32732	
5280	0	32784	
5281	0	32888	
5282	0	32884	
5283	0	32860	
5284	0	32808	
5285	0	32817	
5286	0	32700	
5287	0	32596	
5288	0	32732	
5289	0	32636	
5290	0	32628	
5291	0	32813	
5292	0	32980	
5293	0	32832	
5294	0	32700	
5295	0	32752	
5296	0	32528	
5297	0	32564	
5298	0	32793	
5299	0	32804	
5300	0	32920	
5301	0	33052	
5302	0	33012	
5303	0	32880	
5304	0	32740	
5305	0	32622	
5306	0	32540	
5307	0	32676	
5308	0	32884	
5309	0	33176	
5310	0	32596	
5311	0	32192	
5312	0	32352	
5313	0	32304	
5314	0	31940	
5315	0	32380	
5316	0	33118	
5317	0	33928	
5318	0	33748	
5319	0	33445	
5320	0	32893	
5321	0	32647	
5322	0	32526	
5323	0	32886	
5324	0	32782	
5325	0	32888	
5326	0	32892	
5327	0	32653	
5328	0	31149	
5329	0	29692	
5330	0	29996	
5331	0	31297	
5332	0	32792	
5333	0	33332	
5334	0	32884	
5335	0	33900	
5336	0	33396	
5337	0	30480	
5338	0	30496	
5339	0	31488	
5340	0	32792	
5341	0	33504	
5342	0	33596	
5343	0	34068	
5344	0	34320	
5345	0	34680	
5346	0	36176	
5347	0	37308	
5348	0	36752	
5349	0	36580	
5350	0	36092	
5351	0	34700	
5352	0	33528	
5353	0	33012	
5354	0	32444	
5355	0	31984	
5356	0	31420	
5357	0	29868	
5358	0	28252	
5359	0	28128	
5360	0	24484	
5361	0	19753	
5362	0	22692	
5363	0	26568	
5364	0	29096	
5365	0	30660	
5366	0	33100	
5367	0	36108	
5368	0	38548	
5369	0	39524	
5370	0	41416	
5371	0	42724	
5372	0	41176	
5373	0	36952	
5374	0	35724	
5375	0	34656	
5376	0	33588	
5377	0	35232	
5378	0	36368	
5379	0	33148	
5380	0	27408	
5381	0	27180	
5382	0	29272	
5383	0	30622	
5384	0	32428	
5385	0	34018	
5386	0	36620	
5387	0	37056	
5388	0	34472	
5389	0	33448	
5390	0	33593	
5391	0	33556	
5392	0	35188	
5393	0	35392	
5394	0	33208	
5395	0	30400	
5396	0	29324	
5397	0	29576	
5398	0	29804	
5399	0	31868	
5400	0	31400	
5401	0	28384	
5402	0	26784	
5403	0	26037	
5404	0	27440	
5405	0	30825	
5406	0	33640	
5407	0	35392	
5408	0	32244	
5409	0	30528	
5410	0	30012	
5411	0	22996	
5412	0	19974	
5413	0	26772	
5414	0	34552	
5415	0	40552	
5416	0	43384	
5417	0	45664	
5418	0	46424	
5419	0	45896	
5420	0	44856	
5421	0	44244	
5422	0	44620	
5423	0	43804	
5424	0	39616	
5425	0	32376	
5426	0	24888	
5427	0	19485	
5428	0	17700	
5429	0	18130	
5430	0	14336	
5431	0	15786	
5432	0	21237	
5433	0	28100	
5434	0	33444	
5435	0	37548	
5436	0	40888	
5437	0	43348	
5438	0	43460	
5439	0	40326	
5440	0	38392	
5441	0	35836	
5442	0	33153	
5443	0	31616	
5444	0	30360	
5445	0	29852	
5446	0	29244	
5447	0	31724	
5448	0	34704	
5449	0	32536	
5450	0	31748	
5451	0	33400	
5452	0	32276	
5453	0	31705	
5454	0	34149	
5455	0	34992	
5456	0	34184	
5457	0	32489	
5458	0	29216	
5459	0	29684	
5460	0	31140	
5461	0	31408	
5462	0	30953	
5463	0	28805	
5464	0	29068	
5465	0	29512	
5466	0	30794	
5467	0	33404	
5468	0	35836	
5469	0	35188	
5470	0	36088	
5471	0	37036	
5472	0	36684	
5473	0	38140	
5474	0	38997	
5475	0	37616	
5476	0	38428	
5477	0	38804	
5478	0	38472	
5479	0	36520	
5480	0	35060	
5481	0	32844	
5482	0	29196	
5483	0	27900	
5484	0	28352	
5485	0	27020	
5486	0	26536	
5487	0	22804	
5488	0	19416	
5489	0	21441	
5490	0	23576	
5491	0	26102	
5492	0	30084	
5493	0	33308	
5494	0	37372	
5495	0	39508	
5496	0	40332	
5497	0	41065	
5498	0	42036	
5499	0	40916	
5500	0	39093	
5501	0	37944	
5502	0	35544	
5503	0	33564	
5504	0	32308	
5505	0	31112	
5506	0	31316	
5507	0	31378	
5508	0	29728	
5509	0	28448	
5510	0	27156	
5511	0	25672	
5512	0	22204	
5513	0	23394	
5514	0	27220	
5515	0	27804	
5516	0	30588	
5517	0	34744	
5518	0	37988	
5519	0	39124	
5520	0	40000	
5521	0	40080	
5522	0	40444	
5523	0	39808	
5524	0	36221	
5525	0	35649	
5526	0	35844	
5527	0	31824	
5528	0	25908	
5529	0	27304	
5530	0	28328	
5531	0	30917	
5532	0	32569	
5533	0	34068	
5534	0	33964	
5535	0	35608	
5536	0	37060	
5537	0	35832	
5538	0	35280	
5539	0	35308	
5540	0	35472	
5541	0	35456	
5542	0	33348	
5543	0	31604	
5544	0	29896	
5545	0	29668	
5546	0	30896	
5547	0	32096	
5548	0	33036	
5549	0	33728	
5550	0	33592	
5551	0	33100	
5552	0	32156	
5553	0	31956	
5554	0	31357	
5555	0	31697	
5556	0	31616	
5557	0	30845	
5558	0	29556	
5559	0	30380	
5560	0	31264	
5561	0	32388	
5562	0	30884	
5563	0	29900	
5564	0	30288	
5565	0	31360	
5566	0	31832	
5567	0	32192	
5568	0	32900	
5569	0	33104	
5570	0	33524	
5571	0	33908	
5572	0	33637	
5573	0	34376	
5574	0	34980	
5575	0	36022	
5576	0	37048	
5577	0	36292	
5578	0	33756	
5579	0	31992	
5580	0	32184	
5581	0	33052	
5582	0	32120	
5583	0	30712	
5584	0	31068	
5585	0	31636	
5586	0	31468	
5587	0	31520	
5588	0	31992	
5589	0	32716	
5590	0	30892	
5591	0	28624	
5592	0	29292	
5593	0	30060	
5594	0	31296	
5595	0	33210	
5596	0	34748	
5597	0	34564	
5598	0	30696	
5599	0	30248	
5600	0	32640	
5601	0	34156	
5602	0	37072	
5603	0	36472	
5604	0	36508	
5605	0	37972	
5606	0	36624	
5607	0	35932	
5608	0	37396	
5609	0	39302	
5610	0	39512	
5611	0	38868	
5612	0	35566	
5613	0	32936	
5614	0	31648	
5615	0	30592	
5616	0	28965	
5617	0	28212	
5618	0	28324	
5619	0	28848	
5620	0	29748	
5621	0	29780	
5622	0	29336	
5623	0	30292	
5624	0	32004	
5625	0	32676	
5626	0	32596	
5627	0	32416	
5628	0	32428	
5629	0	32664	
5630	0	33028	
5631	0	32437	
5632	0	31936	
5633	0	32248	
5634	0	32534	
5635	0	32472	
5636	0	32352	
5637	0	32516	
5638	0	32988	
5639	0	32948	
5640	0	32861	
5641	0	32672	
5642	0	32416	
5643	0	32865	
5644	0	32140	
5645	0	31780	
5646	0	32401	
5647	0	32746	
5648	0	33733	
5649	0	34553	
5650	0	34044	
5651	0	32861	
5652	0	32884	
5653	0	32584	
5654	0	32640	
5655	0	32256	
5656	0	32472	
5657	0	33188	
5658	0	33082	
5659	0	33237	
5660	0	33692	
5661	0	33868	
5662	0	34016	
5663	0	33344	
5664	0	33148	
5665	0	33152	
5666	0	32512	
5667	0	32200	
5668	0	32113	
5669	0	32224	
5670	0	32220	
5671	0	32253	
5672	0	32378	
5673	0	32528	
5674	0	32684	
5675	0	32980	
5676	0	33132	
5677	0	32968	
5678	0	32756	
5679	0	32614	
5680	0	32476	
5681	0	32597	
5682	0	32814	
5683	0	32889	
5684	0	32928	
5685	0	32860	
5686	0	32812	
5687	0	32820	
5688	0	32816	
5689	0	32768	
5690	0	32780	
5691	0	32812	
5692	0	32736	
5693	0	32773	
5694	0	32768	
5695	0	32628	
5696	0	32768	
5697	0	32629	
5698	0	32830	
5699	0	32876	
5700	0	32900	
5701	0	32844	
5702	0	32728	
5703	0	32684	
5704	0	32768	
5705	0	32840	
5706	0	32744	
5707	0	32848	
5708	0	32781	
5709	0	32645	
5710	0	32757	
5711	0	32576	
5712	0	32440	
5713	0	32740	
5714	0	32792	
5715	0	33060	
5716	0	33016	
5717	0	32983	
5718	0	33152	
5719	0	33094	
5720	0	33140	
5721	0	33232	
5722	0	33384	
5723	0	33308	
5724	0	32769	
5725	0	32224	
5726	0	32164	
5727	0	32252	
5728	0	32540	
5729	0	32785	
5730	0	32836	
5731	0	32740	
5732	0	32624	
5733	0	32656	
5734	0	32868	
5735	0	32780	
5736	0	32800	
5737	0	32796	
5738	0	32772	
5739	0	32624	
5740	0	32728	
5741	0	32820	
5742	0	32692	
5743	0	32677	
5744	0	32776	
5745	0	32852	
5746	0	32772	
5747	0	32788	
5748	0	32688	
5749	0	32708	
5750	0	32578	
5751	0	32724	
5752	0	32736	
5753	0	32736	
5754	0	32828	
5755	0	32768	
5756	0	32774	
5757	0	33184	
5758	0	33004	
5759	0	32976	
5760	0	32968	
5761	0	32720	
5762	0	32796	
5763	0	32588	
5764	0	32556	
5765	0	32621	
5766	0	32644	
5767	0	32876	
5768	0	32801	
5769	0	32740	
5770	0	32740	
5771	0	32748	
5772	0	32788	
5773	0	32864	
5774	0	32892	
5775	0	32785	
5776	0	32820	
5777	0	32824	
5778	0	32836	
5779	0	32749	
5780	0	32820	
5781	0	32744	
5782	0	32720	
5783	0	32736	
5784	0	32856	
5785	0	32892	
5786	0	32716	
5787	0	32668	
5788	0	32668	
5789	0	32672	
5790	0	32741	
5791	0	32712	
5792	0	32824	
5793	0	32864	
5794	0	32773	
5795	0	32744	
5796	0	32809	
5797	0	32828	
5798	0	32825	
5799	0	32822	
5800	0	32824	
5801	0	32832	
5802	0	32844	
5803	0	32800	
5804	0	32791	
5805	0	32716	
5806	0	32712	
5807	0	32684	
5808	0	32709	
5809	0	32744	
5810	0	32808	
5811	0	32832	
5812	0	32804	
5813	0	32878	
5814	0	32789	
5815	0	32812	
5816	0	32792	
5817	0	32824	
5818	0	32836	
5819	0	32768	
5820	0	32832	
5821	0	32796	
5822	0	32802	
5823	0	32712	
5824	0	32776	
5825	0	32744	
5826	0	32692	
5827	0	32668	
5828	0	32712	
5829	0	32700	
5830	0	32784	
5831	0	32740	
5832	0	32778	
5833	0	32796	
5834	0	32816	
5835	0	32780	
5836	0	32836	
5837	0	32832	
5838	0	32872	
5839	0	32792	
5840	0	32868	
5841	0	32840	
5842	0	32840	
5843	0	32728	
5844	0	32672	
5845	0	32764	
5846	0	32744	
5847	0	32688	
5848	0	32772	
5849	0	32764	
5850	0	32904	
5851	0	32804	
5852	0	32846	
5853	0	32784	
5854	0	32740	
5855	0	32772	
5856	0	32758	
5857	0	32754	
5858	0	32752	
5859	0	32764	
5860	0	32848	
5861	0	32846	
5862	0	32840	
5863	0	32756	
5864	0	32748	
5865	0	32728	
5866	0	32768	
5867	0	32640	
5868	0	32660	
5869	0	32668	
5870	0	32692	
5871	0	32764	
5872	0	32760	
5873	0	32784	
5874	0	32768	
5875	0	32800	
5876	0	32848	
5877	0	32832	
5878	0	32848	
5879	0	32836	
5880	0	32940	
5881	0	32885	
5882	0	32852	
5883	0	32804	
5884	0	32796	
5885	0	32720	
5886	0	32788	
5887	0	32721	
5888	0	32758	
5889	0	32732	
5890	0	32792	
5891	0	32768	
5892	0	32782	
5893	0	32836	
5894	0	32896	
5895	0	32836	
5896	0	32818	
5897	0	32868	
5898	0	32764	
5899	0	32766	
5900	0	32880	
5901	0	32844	
5902	0	32764	
5903	0	32812	
5904	0	32773	
5905	0	32732	
5906	0	32693	
5907	0	32684	
5908	0	32692	
5909	0	32727	
5910	0	32776	
5911	0	32800	
5912	0	32788	
5913	0	32796	
5914	0	32828	
5915	0	32784	
5916	0	32764	
5917	0	32804	
5918	0	32837	
5919	0	32792	
5920	0	32812	
5921	0	32860	
5922	0	32832	
5923	0	32780	
5924	0	32780	
5925	0	32720	
5926	0	32820	
5927	0	32716	
5928	0	32776	
5929	0	32805	
5930	0	32792	
5931	0	32788	
5932	0	32750	
5933	0	32768	
5934	0	32768	
5935	0	32768	
5936	0	32752	
5937	0	32800	
5938	0	32769	
5939	0	32812	
5940	0	32804	
5941	0	32824	
5942	0	32836	
5943	0	32764	
5944	0	32756	
5945	0	32798	
5946	0	32756	
5947	0	32773	
5948	0	32780	
5949	0	32704	
5950	0	32796	
5951	0	32792	
5952	0	32820	
5953	0	32824	
5954	0	32766	
5955	0	32784	
5956	0	32800	
5957	0	32788	
5958	0	32680	
5959	0	32688	
5960	0	32677	
5961	0	32783	
5962	0	32764	
5963	0	32804	
5964	0	32774	
5965	0	32796	
5966	0	32746	
5967	0	32756	
5968	0	32784	
5969	0	32800	
5970	0	32784	
5971	0	32748	
5972	0	32861	
5973	0	32804	
5974	0	32712	
5975	0	32772	
5976	0	32764	
5977	0	32800	
5978	0	32820	
5979	0	32844	
5980	0	32840	
5981	0	32772	
5982	0	32844	
5983	0	32877	
5984	0	32857	
5985	0	32932	
5986	0	32868	
5987	0	32824	
5988	0	32720	
5989	0	32672	
5990	0	32640	
5991	0	32600	
5992	0	32720	
5993	0	32716	
5994	0	32713	
5995	0	32732	
5996	0	32628	
5997	0	32725	
5998	0	32752	
5999	0	32821	
6000	0	32833	
6001	0	32877	
6002	0	33029	
6003	0	32948	
6004	0	32856	
6005	0	32788	
6006	0	32848	
6007	0	32772	
6008	0	32828	
6009	0	32768	
6010	0	32800	
6011	0	32784	
6012	0	32820	
6013	0	32804	
6014	0	32704	
6015	0	32669	
6016	0	32660	
6017	0	32744	
6018	0	32732	
6019	0	32776	
6020	0	32821	
6021	0	32884	
6022	0	32752	
6023	0	32685	
6024	0	32646	
6025	0	32696	
6026	0	32664	
6027	0	32700	
6028	0	32677	
6029	0	32774	
6030	0	32860	
6031	0	32856	
6032	0	32892	
6033	0	32892	
6034	0	32908	
6035	0	32824	
6036	0	32956	
6037	0	32788	
6038	0	32836	
6039	0	32864	
6040	0	32820	
6041	0	32804	
6042	0	32804	
6043	0	32812	
6044	0	32708	
6045	0	32696	
6046	0	32780	
6047	0	32708	
6048	0	32652	
6049	0	32696	
6050	0	32742	
6051	0	32806	
6052	0	32816	
6053	0	32892	
6054	0	32766	
6055	0	32772	
6056	0	32840	
6057	0	32812	
6058	0	32776	
6059	0	32800	
6060	0	32797	
6061	0	32832	
6062	0	32836	
6063	0	32759	
6064	0	32680	
6065	0	32734	
6066	0	32776	
6067	0	32798	
6068	0	32775	
6069	0	32780	
6070	0	32768	
6071	0	32663	
6072	0	32708	
6073	0	32768	
6074	0	32871	
6075	0	32804	
6076	0	32852	
6077	0	32836	
6078	0	32861	
6079	0	32836	
6080	0	32814	
6081	0	32860	
6082	0	32832	
6083	0	32812	
6084	0	32760	
6085	0	32761	
6086	0	32720	
6087	0	32708	
6088	0	32748	
6089	0	32732	
6090	0	32766	
6091	0	32756	
6092	0	32832	
6093	0	32788	
6094	0	32792	
6095	0	32776	
6096	0	32825	
6097	0	32848	
6098	0	32756	
6099	0	32824	
6100	0	32792	
6101	0	32804	
6102	0	32804	
6103	0	32756	
6104	0	32708	
6105	0	32728	
6106	0	32737	
6107	0	32736	
6108	0	32774	
6109	0	32772	
6110	0	32752	
6111	0	32792	
6112	0	32780	
6113	0	32808	
6114	0	32832	
6115	0	32788	
6116	0	32732	
6117	0	32804	
6118	0	32780	
6119	0	32800	
6120	0	32784	
6121	0	32760	
6122	0	32780	
6123	0	32784	
6124	0	32816	
6125	0	32752	
6126	0	32698	
6127	0	32680	
6128	0	32732	
6129	0	32772	
6130	0	32744	
6131	0	32780	
6132	0	32732	
6133	0	32812	
6134	0	32801	
6135	0	32860	
6136	0	32812	
6137	0	32892	
6138	0	32829	
6139	0	32768	
6140	0	32820	
6141	0	32804	
6142	0	32844	
6143	0	32772	
6144	0	32748	
6145	0	32726	
6146	0	32698	
6147	0	32645	
6148	0	32688	
6149	0	32712	
6150	0	32705	
6151	0	32800	
6152	0	32837	
6153	0	32768	
6154	0	32876	
6155	0	32884	
6156	0	32812	
6157	0	32772	
6158	0	32793	
6159	0	32832	
6160	0	32816	
6161	0	32796	
6162	0	32816	
6163	0	32736	
6164	0	32708	
6165	0	32752	
6166	0	32732	
6167	0	32668	
6168	0	32712	
6169	0	32646	
6170	0	32825	
6171	0	32804	
6172	0	32832	
6173	0	32808	
6174	0	32876	
6175	0	32820	
6176	0	32765	
6177	0	32796	
6178	0	32824	
6179	0	32820	
6180	0	32776	
6181	0	32853	
6182	0	32788	
6183	0	32801	
6184	0	32776	
6185	0	32828	
6186	0	32762	
6187	0	32740	
6188	0	32816	
6189	0	32720	
6190	0	32757	
6191	0	32652	
6192	0	32676	
6193	0	32676	
6194	0	32724	
6195	0	32698	
6196	0	32668	
6197	0	32607	
6198	0	32656	
6199	0	32760	
6200	0	32924	
6201	0	32972	
6202	0	32934	
6203	0	32792	
6204	0	32868	
6205	0	32772	
6206	0	32824	
6207	0	32781	
6208	0	32772	
6209	0	32788	
6210	0	32794	
6211	0	32748	
6212	0	32820	
6213	0	32864	
6214	0	32836	
6215	0	32800	
6216	0	32792	
6217	0	32812	
6218	0	32772	
6219	0	32812	
6220	0	32832	
6221	0	32824	
6222	0	32800	
6223	0	32761	
6224	0	32773	
6225	0	32732	
6226	0	32796	
6227	0	32720	
6228	0	32704	
6229	0	32736	
6230	0	32796	
6231	0	32740	
6232	0	32828	
6233	0	32728	
6234	0	32732	
6235	0	32758	
6236	0	32832	
6237	0	32741	
6238	0	32785	
6239	0	32764	
6240	0	32888	
6241	0	32836	
6242	0	32801	
6243	0	32742	
6244	0	32784	
6245	0	32714	
6246	0	32772	
6247	0	32736	
6248	0	32696	
6249	0	32733	
6250	0	32812	
6251	0	32760	
6252	0	32768	
6253	0	32784	
6254	0	32838	
6255	0	32816	
6256	0	32796	
6257	0	32792	
6258	0	32820	
6259	0	32724	
6260	0	32872	
6261	0	32884	
6262	0	32824	
6263	0	32837	
6264	0	32736	
6265	0	32772	
6266	0	32744	
6267	0	32700	
6268	0	32740	
6269	0	32728	
6270	0	32757	
6271	0	32732	
6272	0	32772	
6273	0	32808	
6274	0	32780	
6275	0	32828	
6276	0	32824	
6277	0	32804	
6278	0	32790	
6279	0	32834	
6280	0	32832	
6281	0	32876	
6282	0	32808	
6283	0	32724	
6284	0	32764	
6285	0	32740	
6286	0	32680	
6287	0	32760	
6288	0	32772	
6289	0	32660	
6290	0	32814	
6291	0	32844	
6292	0	32788	
6293	0	32758	
6294	0	32785	
6295	0	32756	
6296	0	32816	
6297	0	32788	
6298	0	32804	
6299	0	32804	
6300	0	32788	
6301	0	32868	
6302	0	32800	
6303	0	32792	
6304	0	32732	
6305	0	32825	
6306	0	32760	
6307	0	32711	
6308	0	32696	
6309	0	32756	
6310	0	32744	
6311	0	32796	
6312	0	32840	
6313	0	32796	
6314	0	32798	
6315	0	32725	
6316	0	32756	
6317	0	32888	
6318	0	32780	
6319	0	32756	
6320	0	32796	
6321	0	32797	
6322	0	32772	
6323	0	32844	
6324	0	32756	
6325	0	32730	
6326	0	32760	
6327	0	32652	
6328	0	32732	
6329	0	32752	
6330	0	32728	
6331	0	32752	
6332	0	32801	
6333	0	32800	
6334	0	32764	
6335	0	32852	
6336	0	32832	
6337	0	32836	
6338	0	32752	
6339	0	32828	
6340	0	32816	
6341	0	32866	
6342	0	32832	
6343	0	32824	
6344	0	32736	
6345	0	32844	
6346	0	32684	
6347	0	32692	
6348	0	32695	
6349	0	32776	
6350	0	32752	
6351	0	32712	
6352	0	32768	
6353	0	32793	
6354	0	32816	
6355	0	32717	
6356	0	32724	
6357	0	32798	
6358	0	32817	
6359	0	32864	
6360	0	32805	
6361	0	32852	
6362	0	32808	
6363	0	32784	
6364	0	32740	
6365	0	32736	
6366	0	32720	
6367	0	32692	
6368	0	32774	
6369	0	32732	
6370	0	32760	
6371	0	32748	
6372	0	32800	
6373	0	32788	
6374	0	32808	
6375	0	32812	
6376	0	32876	
6377	0	32720	
6378	0	32885	
6379	0	32781	
6380	0	32776	
6381	0	32846	
6382	0	32873	
6383	0	32820	
6384	0	32760	
6385	0	32796	
6386	0	32808	
6387	0	32768	
6388	0	32624	
6389	0	32736	
6390	0	32736	
6391	0	32748	
6392	0	32716	
6393	0	32896	
6394	0	32800	
6395	0	32820	
6396	0	32832	
6397	0	32816	
6398	0	32800	
6399	0	32804	
6400	0	32800	
6401	0	32852	
6402	0	32796	
6403	0	32784	
6404	0	32793	
6405	0	32812	
6406	0	32720	
6407	0	32720	
6408	0	32776	
6409	0	32724	
6410	0	32752	
6411	0	32764	
6412	0	32794	
6413	0	32816	
6414	0	32768	
6415	0	32778	
6416	0	32850	
6417	0	32788	
6418	0	32752	
6419	0	32732	
6420	0	32812	
6421	0	32854	
6422	0	32857	
6423	0	32884	
6424	0	32744	
6425	0	32800	
6426	0	32788	
6427	0	32743	
6428	0	32652	
6429	0	32652	
6430	0	32664	
6431	0	32684	
6432	0	32740	
6433	0	32744	
6434	0	32911	
6435	0	32832	
6436	0	32816	
6437	0	32841	
6438	0	32804	
6439	0	32798	
6440	0	32845	
6441	0	32900	
6442	0	32793	
6443	0	32768	
6444	0	32768	
6445	0	32756	
6446	0	32752	
6447	0	32752	
6448	0	32732	
6449	0	32796	
6450	0	32790	
6451	0	32802	
6452	0	32768	
6453	0	32824	
6454	0	32808	
6455	0	32852	
6456	0	32845	
6457	0	32804	
6458	0	32716	
6459	0	32685	
6460	0	32800	
6461	0	32908	
6462	0	32800	
6463	0	32832	
6464	0	32784	
6465	0	32804	
6466	0	32808	
6467	0	32788	
6468	0	32724	
6469	0	32744	
6470	0	32776	
6471	0	32708	
6472	0	32760	
6473	0	32744	
6474	0	32776	
6475	0	32736	
6476	0	32750	
6477	0	32738	
6478	0	32756	
6479	0	32788	
6480	0	32800	
6481	0	32772	
6482	0	32828	
6483	0	32736	
6484	0	32724	
6485	0	32710	
6486	0	32668	
6487	0	32668	
6488	0	32689	
6489	0	32700	
6490	0	32832	
6491	0	32741	
6492	0	32844	
6493	0	32816	
6494	0	32816	
6495	0	32832	
6496	0	32885	
6497	0	32876	
6498	0	32888	
6499	0	32892	
6500	0	32848	
6501	0	32784	
6502	0	32916	
6503	0	32804	
6504	0	32832	
6505	0	32797	
6506	0	32784	
6507	0	32725	
6508	0	32744	
6509	0	32768	
6510	0	32780	
6511	0	32780	
6512	0	32776	
6513	0	32813	
6514	0	32816	
6515	0	32785	
6516	0	32808	
6517	0	32796	
6518	0	32760	
6519	0	32732	
6520	0	32796	
6521	0	32828	
6522	0	32824	
6523	0	32768	
6524	0	32784	
6525	0	32748	
6526	0	32796	
6527	0	32608	
6528	0	32708	
6529	0	32717	
6530	0	32780	
6531	0	32774	
6532	0	32768	
6533	0	32876	
6534	0	32792	
6535	0	32748	
6536	0	32752	
6537	0	32856	
6538	0	32804	
6539	0	32808	
6540	0	32772	
6541	0	32776	
6542	0	32828	
6543	0	32813	
6544	0	32753	
6545	0	32812	
6546	0	32808	
6547	0	32720	
6548	0	32740	
6549	0	32720	
6550	0	32708	
6551	0	32752	
6552	0	32772	
6553	0	32852	
6554	0	32805	
6555	0	32780	
6556	0	32788	
6557	0	32808	
6558	0	32792	
6559	0	32817	
6560	0	32778	
6561	0	32784	
6562	0	32776	
6563	0	32852	
6564	0	32716	
6565	0	32780	
6566	0	32792	
6567	0	32704	
6568	0	32752	
6569	0	32736	
6570	0	32792	
6571	0	32788	
6572	0	32780	
6573	0	32844	
6574	0	32784	
6575	0	32788	
6576	0	32772	
6577	0	32774	
6578	0	32892	
6579	0	32828	
6580	0	32848	
6581	0	32848	
6582	0	32868	
6583	0	32810	
6584	0	32744	
6585	0	32752	
6586	0	32770	
6587	0	32752	
6588	0	32680	
6589	0	32760	
6590	0	32776	
6591	0	32812	
6592	0	32800	
6593	0	32740	
6594	0	32768	
6595	0	32764	
6596	0	32802	
6597	0	32800	
6598	0	32776	
6599	0	32800	
6600	0	32832	
6601	0	32804	
6602	0	32828	
6603	0	32772	
6604	0	32656	
6605	0	32740	
6606	0	32736	
6607	0	32732	
6608	0	32720	
6609	0	32784	
6610	0	32824	
6611	0	32840	
6612	0	32808	
6613	0	32828	
6614	0	32785	
6615	0	32748	
6616	0	32796	
6617	0	32684	
6618	0	32800	
6619	0	32832	
6620	0	32868	
6621	0	32844	
6622	0	32828	
6623	0	32828	
6624	0	32748	
6625	0	32712	
6626	0	32760	
6627	0	32740	
6628	0	32696	
6629	0	32672	
6630	0	32760	
6631	0	32752	
6632	0	32765	
6633	0	32877	
6634	0	32832	
6635	0	32848	
6636	0	32828	
6637	0	32804	
6638	0	32772	
6639	0	32734	
6640	0	32784	
6641	0	32852	
6642	0	32852	
6643	0	32820	
6644	0	32716	
6645	0	32732	
6646	0	32773	
6647	0	32706	
6648	0	32812	
6649	0	32756	
6650	0	32710	
6651	0	32776	
6652	0	32808	
6653	0	32808	
6654	0	32784	
6655	0	32801	
6656	0	32820	
6657	0	32793	
6658	0	32798	
6659	0	32760	
6660	0	32768	
6661	0	32844	
6662	0	32760	
6663	0	32700	
6664	0	32756	
6665	0	32796	
6666	0	32796	
6667	0	32684	
6668	0	32760	
6669	0	32732	
6670	0	32764	
6671	0	32772	
6672	0	32824	
6673	0	32804	
6674	0	32876	
6675	0	32756	
6676	0	32808	
6677	0	32808	
6678	0	32750	
6679	0	32744	
6680	0	32820	
6681	0	32852	
6682	0	32824	
6683	0	32784	
6684	0	32804	
6685	0	32740	
6686	0	32754	
6687	0	32776	
6688	0	32756	
6689	0	32772	
6690	0	32764	
6691	0	32824	
6692	0	32784	
6693	0	32748	
6694	0	32780	
6695	0	32829	
6696	0	32820	
6697	0	32772	
6698	0	32824	
6699	0	32840	
6700	0	32732	
6701	0	32852	
6702	0	32828	
6703	0	32802	
6704	0	32769	
6705	0	32720	
6706	0	32716	
6707	0	32737	
6708	0	32684	
6709	0	32708	
6710	0	32712	
6711	0	32798	
6712	0	32752	
6713	0	32828	
6714	0	32824	
6715	0	32764	
6716	0	32820	
6717	0	32816	
6718	0	32788	
6719	0	32748	
6720	0	32772	
6721	0	32828	
6722	0	32776	
6723	0	32764	
6724	0	32720	
6725	0	32740	
6726	0	32756	
6727	0	32692	
6728	0	32732	
6729	0	32809	
6730	0	32792	
6731	0	32748	
6732	0	32784	
6733	0	32776	
6734	0	32880	
6735	0	32792	
6736	0	32824	
6737	0	32812	
6738	0	32869	
6739	0	32744	
6740	0	32836	
6741	0	32856	
6742	0	32828	
6743	0	32836	
6744	0	32772	
6745	0	32784	
6746	0	32824	
6747	0	32644	
6748	0	32736	
6749	0	32749	
6750	0	32801	
6751	0	32789	
6752	0	32732	
6753	0	32788	
6754	0	32768	
6755	0	32776	
6756	0	32744	
6757	0	32804	
6758	0	32808	
6759	0	32808	
6760	0	32808	
6761	0	32840	
6762	0	32800	
6763	0	32828	
6764	0	32780	
6765	0	32748	
6766	0	32716	
6767	0	32736	
6768	0	32692	
6769	0	32720	
6770	0	32740	
6771	0	32776	
6772	0	32784	
6773	0	32848	
6774	0	32812	
6775	0	32806	
6776	0	32772	
6777	0	32796	
6778	0	32756	
6779	0	32782	
6780	0	32800	
6781	0	32852	
6782	0	32848	
6783	0	32838	
6784	0	32828	
6785	0	32756	
6786	0	32764	
6787	0	32672	
6788	0	32692	
6789	0	32725	
6790	0	32732	
6791	0	32773	
6792	0	32784	
6793	0	32764	
6794	0	32836	
6795	0	32820	
6796	0	32744	
6797	0	32816	
6798	0	32836	
6799	0	32764	
6800	0	32752	
6801	0	32892	
6802	0	32832	
6803	0	32752	
6804	0	32744	
6805	0	32736	
6806	0	32748	
6807	0	32736	
6808	0	32700	
6809	0	32696	
6810	0	32725	
6811	0	32776	
6812	0	32792	
6813	0	32796	
6814	0	32752	
6815	0	32788	
6816	0	32766	
6817	0	32830	
6818	0	32848	
6819	0	32764	
6820	0	32796	
6821	0	32824	
6822	0	32837	
6823	0	32812	
6824	0	32808	
6825	0	32764	
6826	0	32717	
6827	0	32724	
6828	0	32716	
6829	0	32708	
6830	0	32824	
6831	0	32772	
6832	0	32856	
6833	0	32749	
6834	0	32840	
6835	0	32804	
6836	0	32812	
6837	0	32758	
6838	0	32812	
6839	0	32844	
6840	0	32832	
6841	0	32804	
6842	0	32764	
6843	0	32748	
6844	0	32772	
6845	0	32804	
6846	0	32704	
6847	0	32663	
6848	0	32756	
6849	0	32780	
6850	0	32813	
6851	0	32824	
6852	0	32796	
6853	0	32820	
6854	0	32792	
6855	0	32852	
6856	0	32824	
6857	0	32816	
6858	0	32712	
6859	0	32775	
6860	0	32752	
6861	0	32776	
6862	0	32856	
6863	0	32820	
6864	0	32788	
6865	0	32829	
6866	0	32710	
6867	0	32704	
6868	0	32744	
6869	0	32772	
6870	0	32780	
6871	0	32768	
6872	0	32780	
6873	0	32768	
6874	0	32802	
6875	0	32796	
6876	0	32828	
6877	0	32809	
6878	0	32796	
6879	0	32800	
6880	0	32756	
6881	0	32744	
6882	0	32768	
6883	0	32800	
6884	0	32785	
6885	0	32768	
6886	0	32768	
6887	0	32735	
6888	0	32720	
6889	0	32692	
6890	0	32760	
6891	0	32756	
6892	0	32784	
6893	0	32848	
6894	0	32846	
6895	0	32808	
6896	0	32737	
6897	0	32776	
6898	0	32736	
6899	0	32812	
6900	0	32876	
6901	0	32812	
6902	0	32825	
6903	0	32812	
6904	0	32729	
6905	0	32784	
6906	0	32756	
6907	0	32708	
6908	0	32692	
6909	0	32760	
6910	0	32732	
6911	0	32800	
6912	0	32764	
6913	0	32774	
6914	0	32796	
6915	0	32824	
6916	0	32774	
6917	0	32868	
6918	0	32788	
6919	0	32784	
6920	0	32812	
6921	0	32872	
6922	0	32820	
6923	0	32744	
6924	0	32860	
6925	0	32672	
6926	0	32704	
6927	0	32696	
6928	0	32720	
6929	0	32708	
6930	0	32788	
6931	0	32748	
6932	0	32820	
6933	0	32789	
6934	0	32804	
6935	0	32826	
6936	0	32832	
6937	0	32865	
6938	0	32808	
6939	0	32781	
6940	0	32856	
6941	0	32820	
6942	0	32841	
6943	0	32796	
6944	0	32748	
6945	0	32732	
6946	0	32732	
6947	0	32720	
6948	0	32758	
6949	0	32708	
6950	0	32680	
6951	0	32872	
6952	0	32805	
6953	0	32792	
6954	0	32840	
6955	0	32800	
6956	0	32844	
6957	0	32816	
6958	0	32784	
6959	0	32797	
6960	0	32753	
6961	0	32791	
6962	0	32832	
6963	0	32796	
6964	0	32740	
6965	0	32749	
6966	0	32716	
6967	0	32736	
6968	0	32736	
6969	0	32708	
6970	0	32732	
6971	0	32788	
6972	0	32816	
6973	0	32772	
6974	0	32816	
6975	0	32772	
6976	0	32848	
6977	0	32800	
6978	0	32820	
6979	0	32780	
6980	0	32824	
6981	0	32910	
6982	0	32772	
6983	0	32752	
6984	0	32776	
6985	0	32812	
6986	0	32716	
6987	0	32760	
6988	0	32652	
6989	0	32740	
6990	0	32748	
6991	0	32808	
6992	0	32784	
6993	0	32776	
6994	0	32800	
6995	0	32768	
6996	0	32828	
6997	0	32802	
6998	0	32868	
6999	0	32772	
7000	0	32848	
7001	0	32853	
7002	0	32792	
7003	0	32772	
7004	0	32757	
7005	0	32740	
7006	0	32778	
7007	0	32680	
7008	0	32692	
7009	0	32781	
7010	0	32780	
7011	0	32720	
7012	0	32790	
7013	0	32812	
7014	0	32714	
7015	0	32740	
7016	0	32856	
7017	0	32798	
7018	0	32732	
7019	0	32800	
7020	0	32784	
7021	0	32854	
7022	0	32924	
7023	0	32806	
7024	0	32724	
7025	0	32768	
7026	0	32804	
7027	0	32776	
7028	0	32716	
7029	0	32720	
7030	0	32663	
7031	0	32793	
7032	0	32804	
7033	0	32802	
7034	0	32820	
7035	0	32796	
7036	0	32822	
7037	0	32830	
7038	0	32765	
7039	0	32768	
7040	0	32880	
7041	0	32860	
7042	0	32812	
7043	0	32824	
7044	0	32700	
7045	0	32804	
7046	0	32772	
7047	0	32692	
7048	0	32744	
7049	0	32764	
7050	0	32741	
7051	0	32784	
7052	0	32720	
7053	0	32824	
7054	0	32780	
7055	0	32800	
7056	0	32760	
7057	0	32872	
7058	0	32792	
7059	0	32748	
7060	0	32788	
7061	0	32840	
7062	0	32853	
7063	0	32772	
7064	0	32716	
7065	0	32716	
7066	0	32780	
7067	0	32692	
7068	0	32745	
7069	0	32736	
7070	0	32789	
7071	0	32800	
7072	0	32816	
7073	0	32804	
7074	0	32761	
7075	0	32836	
7076	0	32788	
7077	0	32848	
7078	0	32868	
7079	0	32896	
7080	0	32784	
7081	0	32860	
7082	0	32808	
7083	0	32776	
7084	0	32784	
7085	0	32744	
7086	0	32764	
7087	0	32772	
7088	0	32732	
7089	0	32736	
7090	0	32750	
7091	0	32732	
7092	0	32806	
7093	0	32792	
7094	0	32788	
7095	0	32784	
7096	0	32748	
7097	0	32776	
7098	0	32858	
7099	0	32800	
7100	0	32790	
7101	0	32788	
7102	0	32797	
7103	0	32740	
7104	0	32756	
7105	0	32693	
7106	0	32745	
7107	0	32656	
7108	0	32686	
7109	0	32700	
7110	0	32740	
7111	0	32704	
7112	0	32748	
7113	0	32805	
7114	0	32800	
7115	0	32776	
7116	0	32797	
7117	0	32765	
7118	0	32844	
7119	0	32832	
7120	0	32908	
7121	0	32788	
7122	0	32840	
7123	0	32812	
7124	0	32836	
7125	0	32808	
7126	0	32740	
7127	0	32736	
7128	0	32793	
7129	0	32696	
7130	0	32708	
7131	0	32824	
7132	0	32734	
7133	0	32824	
7134	0	32780	
7135	0	32804	
7136	0	32836	
7137	0	32816	
7138	0	32780	
7139	0	32796	
7140	0	32788	
7141	0	32889	
7142	0	32896	
7143	0	32760	
7144	0	32716	
7145	0	32704	
7146	0	32720	
7147	0	32704	
7148	0	32732	
7149	0	32688	
7150	0	32696	
7151	0	32812	
7152	0	32790	
7153	0	32808	
7154	0	32812	
7155	0	32846	
7156	0	32788	
7157	0	32802	
7158	0	32840	
7159	0	32817	
7160	0	32800	
7161	0	32844	
7162	0	32848	
7163	0	32765	
7164	0	32692	
7165	0	32784	
7166	0	32680	
7167	0	32774	
7168	0	32756	
7169	0	32788	
7170	0	32660	
7171	0	32764	
7172	0	32806	
7173	0	32788	
7174	0	32816	
7175	0	32812	
7176	0	32816	
7177	0	32784	
7178	0	32796	
7179	0	32827	
7180	0	32797	
7181	0	32812	
7182	0	32910	
7183	0	32760	
7184	0	32748	
7185	0	32777	
7186	0	32776	
7187	0	32685	
7188	0	32708	
7189	0	32732	
7190	0	32756	
7191	0	32784	
7192	0	32804	
7193	0	32772	
7194	0	32848	
7195	0	32820	
7196	0	32748	
7197	0	32800	
7198	0	32816	
7199	0	32776	
7200	0	32760	
7201	0	32904	
7202	0	32832	
7203	0	32768	
7204	0	32740	
7205	0	32800	
7206	0	32733	
7207	0	32736	
7208	0	32740	
7209	0	32588	
7210	0	32732	
7211	0	32744	
7212	0	32760	
7213	0	32788	
7214	0	32788	
7215	0	32828	
7216	0	32769	
7217	0	32804	
7218	0	32808	
7219	0	32792	
7220	0	32852	
7221	0	32808	
7222	0	32848	
7223	0	32900	
7224	0	32800	
7225	0	32684	
7226	0	32756	
7227	0	32724	
7228	0	32712	
7229	0	32802	
7230	0	32760	
7231	0	32749	
7232	0	32680	
7233	0	32792	
7234	0	32772	
7235	0	32856	
7236	0	32872	
7237	0	32861	
7238	0	32776	
7239	0	32757	
7240	0	32796	
7241	0	32857	
7242	0	32832	
7243	0	32750	
7244	0	32796	
7245	0	32716	
7246	0	32680	
7247	0	32700	
7248	0	32712	
7249	0	32736	
7250	0	32780	
7251	0	32796	
7252	0	32768	
7253	0	32792	
7254	0	32804	
7255	0	32736	
7256	0	32728	
7257	0	32796	
7258	0	32844	
7259	0	32860	
7260	0	32832	
7261	0	32772	
7262	0	32796	
7263	0	32740	
7264	0	32781	
7265	0	32788	
7266	0	32808	
7267	0	32772	
7268	0	32708	
7269	0	32692	
7270	0	32681	
7271	0	32804	
7272	0	32748	
7273	0	32824	
7274	0	32852	
7275	0	32766	
7276	0	32808	
7277	0	32804	
7278	0	32865	
7279	0	32792	
7280	0	32789	
7281	0	32820	
7282	0	32860	
7283	0	32788	
7284	0	32724	
7285	0	32724	
7286	0	32742	
7287	0	32776	
7288	0	32630	
7289	0	32708	
7290	0	32772	
7291	0	32796	
7292	0	32809	
7293	0	32812	
7294	0	32820	
7295	0	32825	
7296	0	32876	
7297	0	32814	
7298	0	32800	
7299	0	32848	
7300	0	32784	
7301	0	32778	
7302	0	32796	
7303	0	32760	
7304	0	32788	
7305	0	32804	
7306	0	32760	
7307	0	32716	
7308	0	32644	
7309	0	32772	
7310	0	32724	
7311	0	32804	
7312	0	32812	
7313	0	32728	
7314	0	32880	
7315	0	32748	
7316	0	32782	
7317	0	32852	
7318	0	32792	
7319	0	32808	
7320	0	32756	
7321	0	32764	
7322	0	32832	
7323	0	32794	
7324	0	32789	
7325	0	32742	
7326	0	32741	
7327	0	32744	
7328	0	32758	
7329	0	32712	
7330	0	32708	
7331	0	32776	
7332	0	32808	
7333	0	32756	
7334	0	32864	
7335	0	32844	
7336	0	32812	
7337	0	32828	
7338	0	32844	
7339	0	32814	
7340	0	32808	
7341	0	32788	
7342	0	32768	
7343	0	32748	
7344	0	32736	
7345	0	32728	
7346	0	32804	
7347	0	32696	
7348	0	32708	
7349	0	32732	
7350	0	32760	
7351	0	32804	
7352	0	32748	
7353	0	32768	
7354	0	32825	
7355	0	32804	
7356	0	32789	
7357	0	32812	
7358	0	32808	
7359	0	32728	
7360	0	32800	
7361	0	32812	
7362	0	32880	
7363	0	32796	
7364	0	32744	
7365	0	32716	
7366	0	32724	
7367	0	32728	
7368	0	32708	
7369	0	32736	
7370	0	32772	
7371	0	32708	
7372	0	32836	
7373	0	32824	
7374	0	32837	
7375	0	32748	
7376	0	32812	
7377	0	32796	
7378	0	32768	
7379	0	32756	
7380	0	32776	
7381	0	32789	
7382	0	32836	
7383	0	32784	
7384	0	32789	
7385	0	32736	
7386	0	32660	
7387	0	32724	
7388	0	32756	
7389	0	32752	
7390	0	32780	
7391	0	32754	
7392	0	32756	
7393	0	32784	
7394	0	32840	
7395	0	32788	
7396	0	32868	
7397	0	32840	
7398	0	32820	
7399	0	32724	
7400	0	32788	
7401	0	32788	
7402	0	32864	
7403	0	32740	
7404	0	32776	
7405	0	32800	
7406	0	32768	
7407	0	32756	
7408	0	32700	
7409	0	32772	
7410	0	32789	
7411	0	32848	
7412	0	32704	
7413	0	32784	
7414	0	32812	
7415	0	32796	
7416	0	32773	
7417	0	32868	
7418	0	32748	
7419	0	32772	
7420	0	32788	
7421	0	32753	
7422	0	32840	
7423	0	32796	
7424	0	32788	
7425	0	32756	
7426	0	32724	
7427	0	32776	
7428	0	32724	
7429	0	32744	
7430	0	32784	
7431	0	32741	
7432	0	32804	
7433	0	32780	
7434	0	32816	
7435	0	32832	
7436	0	32876	
7437	0	32788	
7438	0	32856	
7439	0	32816	
7440	0	32788	
7441	0	32860	
7442	0	32868	
7443	0	32780	
7444	0	32744	
7445	0	32740	
7446	0	32720	
7447	0	32716	
7448	0	32756	
7449	0	32708	
7450	0	32720	
7451	0	32765	
7452	0	32748	
7453	0	32760	
7454	0	32796	
7455	0	32804	
7456	0	32860	
7457	0	32856	
7458	0	32752	
7459	0	32812	
7460	0	32784	
7461	0	32772	
7462	0	32816	
7463	0	32778	
7464	0	32780	
7465	0	32712	
7466	0	32797	
7467	0	32740	
7468	0	32744	
7469	0	32756	
7470	0	32764	
7471	0	32804	
7472	0	32704	
7473	0	32776	
7474	0	32790	
7475	0	32788	
7476	0	32928	
7477	0	32844	
7478	0	32881	
7479	0	32832	
7480	0	32756	
7481	0	32760	
7482	0	32848	
7483	0	32780	
7484	0	32716	
7485	0	32804	
7486	0	32772	
7487	0	32697	
7488	0	32772	
7489	0	32708	
7490	0	32709	
7491	0	32824	
7492	0	32804	
7493	0	32808	
7494	0	32804	
7495	0	32740	
7496	0	32776	
7497	0	32790	
7498	0	32816	
7499	0	32820	
7500	0	32804	
7501	0	32816	
7502	0	32844	
7503	0	32832	
7504	0	32744	
7505	0	32733	
7506	0	32713	
7507	0	32676	
7508	0	32774	
7509	0	32796	
7510	0	32760	
7511	0	32792	
7512	0	32808	
7513	0	32756	
7514	0	32788	
7515	0	32816	
7516	0	32824	
7517	0	32764	
7518	0	32780	
7519	0	32828	
7520	0	32858	
7521	0	32832	
7522	0	32820	
7523	0	32748	
7524	0	32700	
7525	0	32800	
7526	0	32856	
7527	0	32776	
7528	0	32746	
7529	0	32748	
7530	0	32804	
7531	0	32776	
7532	0	32724	
7533	0	32789	
7534	0	32788	
7535	0	32804	
7536	0	32673	
7537	0	32736	
7538	0	32844	
7539	0	32740	
7540	0	32852	
7541	0	32836	
7542	0	32776	
7543	0	32804	
7544	0	32748	
7545	0	32756	
7546	0	32732	
7547	0	32756	
7548	0	32768	
7549	0	32764	
7550	0	32764	
7551	0	32804	
7552	0	32780	
7553	0	32792	
7554	0	32740	
7555	0	32760	
7556	0	32824	
7557	0	32828	
7558	0	32788	
7559	0	32820	
7560	0	32864	
7561	0	32844	
7562	0	32832	
7563	0	32816	
7564	0	32672	
7565	0	32692	
7566	0	32768	
7567	0	32756	
7568	0	32756	
7569	0	32740	
7570	0	32744	
7571	0	32844	
7572	0	32804	
7573	0	32792	
7574	0	32760	
7575	0	32860	
7576	0	32860	
7577	0	32780	
7578	0	32788	
7579	0	32768	
7580	0	32816	
7581	0	32794	
7582	0	32748	
7583	0	32744	
7584	0	32732	
7585	0	32768	
7586	0	32781	
7587	0	32756	
7588	0	32704	
7589	0	32784	
7590	0	32744	
7591	0	32748	
7592	0	32740	
7593	0	32772	
7594	0	32844	
7595	0	32812	
7596	0	32772	
7597	0	32756	
7598	0	32848	
7599	0	32820	
7600	0	32792	
7601	0	32880	
7602	0	32805	
7603	0	32832	
7604	0	32788	
7605	0	32813	
7606	0	32700	
7607	0	32724	
7608	0	32740	
7609	0	32788	
7610	0	32776	
7611	0	32832	
7612	0	32768	
7613	0	32716	
7614	0	32868	
7615	0	32812	
7616	0	32768	
7617	0	32736	
7618	0	32798	
7619	0	32756	
7620	0	32876	
7621	0	32856	
7622	0	32888	
7623	0	32830	
7624	0	32748	
7625	0	32728	
7626	0	32740	
7627	0	32680	
7628	0	32688	
7629	0	32761	
7630	0	32788	
7631	0	32788	
7632	0	32736	
7633	0	32800	
7634	0	32844	
7635	0	32813	
7636	0	32844	
7637	0	32736	
7638	0	32777	
7639	0	32708	
7640	0	32798	
7641	0	32844	
7642	0	32832	
7643	0	32814	
7644	0	32728	
7645	0	32732	
7646	0	32772	
7647	0	32751	
7648	0	32764	
7649	0	32768	
7650	0	32749	
7651	0	32808	
7652	0	32712	
7653	0	32772	
7654	0	32840	
7655	0	32788	
7656	0	32800	
7657	0	32792	
7658	0	32772	
7659	0	32800	
7660	0	32872	
7661	0	32794	
7662	0	32836	
7663	0	32749	
7664	0	32812	
7665	0	32676	
7666	0	32740	
7667	0	32744	
7668	0	32716	
7669	0	32708	
7670	0	32780	
7671	0	32812	
7672	0	32756	
7673	0	32756	
7674	0	32797	
7675	0	32796	
7676	0	32760	
7677	0	32825	
7678	0	32800	
7679	0	32821	
7680	0	32780	
7681	0	32832	
7682	0	32848	
7683	0	32834	
7684	0	32736	
7685	0	32780	
7686	0	32736	
7687	0	32780	
7688	0	32708	
7689	0	32748	
7690	0	32737	
7691	0	32748	
7692	0	32796	
7693	0	32824	
7694	0	32861	
7695	0	32772	
7696	0	32792	
7697	0	32788	
7698	0	32792	
7699	0	32812	
7700	0	32788	
7701	0	32828	
7702	0	32804	
7703	0	32816	
7704	0	32724	
7705	0	32724	
7706	0	32748	
7707	0	32724	
7708	0	32732	
7709	0	32766	
7710	0	32692	
7711	0	32768	
7712	0	32748	
7713	0	32872	
7714	0	32848	
7715	0	32864	
7716	0	32844	
7717	0	32796	
7718	0	32788	
7719	0	32769	
7720	0	32808	
7721	0	32865	
7722	0	32860	
7723	0	32753	
7724	0	32716	
7725	0	32736	
7726	0	32708	
7727	0	32704	
7728	0	32664	
7729	0	32624	
7730	0	32700	
7731	0	32748	
7732	0	32702	
7733	0	32780	
7734	0	32797	
7735	0	32740	
7736	0	32720	
7737	0	32764	
7738	0	32760	
7739	0	32776	
7740	0	32812	
7741	0	32858	
7742	0	32820	
7743	0	32816	
7744	0	32832	
7745	0	32776	
7746	0	32852	
7747	0	32734	
7748	0	32816	
7749	0	32724	
7750	0	32840	
7751	0	32884	
7752	0	32828	
7753	0	32880	
7754	0	32840	
7755	0	32844	
7756	0	32841	
7757	0	32878	
7758	0	32772	
7759	0	32800	
7760	0	32792	
7761	0	32856	
7762	0	32808	
7763	0	32760	
7764	0	32789	
7765	0	32780	
7766	0	32805	
7767	0	32704	
7768	0	32728	
7769	0	32720	
7770	0	32700	
7771	0	32766	
7772	0	32732	
7773	0	32801	
7774	0	32844	
7775	0	32852	
7776	0	32790	
7777	0	32796	
7778	0	32824	
7779	0	32780	
7780	0	32764	
7781	0	32820	
7782	0	32768	
7783	0	32772	
7784	0	32724	
7785	0	32732	
7786	0	32692	
7787	0	32688	
7788	0	32688	
7789	0	32720	
7790	0	32760	
7791	0	32796	
7792	0	32780	
7793	0	32804	
7794	0	32816	
7795	0	32805	
7796	0	32836	
7797	0	32772	
7798	0	32784	
7799	0	32768	
7800	0	32808	
7801	0	32824	
7802	0	32824	
7803	0	32809	
7804	0	32788	
7805	0	32748	
7806	0	32740	
7807	0	32782	
7808	0	32749	
7809	0	32694	
7810	0	32761	
7811	0	32774	
7812	0	32796	
7813	0	32808	
7814	0	32824	
7815	0	32788	
7816	0	32812	
7817	0	32800	
7818	0	32788	
7819	0	32781	
7820	0	32776	
7821	0	32876	
7822	0	32844	
7823	0	32860	
7824	0	32708	
7825	0	32728	
7826	0	32736	
7827	0	32750	
7828	0	32732	
7829	0	32688	
7830	0	32728	
7831	0	32712	
7832	0	32744	
7833	0	32744	
7834	0	32748	
7835	0	32804	
7836	0	32760	
7837	0	32820	
7838	0	32792	
7839	0	32794	
7840	0	32828	
7841	0	32784	
7842	0	32820	
7843	0	32792	
7844	0	32772	
7845	0	32820	
7846	0	32748	
7847	0	32788	
7848	0	32704	
7849	0	32664	
7850	0	32700	
7851	0	32764	
7852	0	32848	
7853	0	32880	
7854	0	32844	
7855	0	32724	
7856	0	32808	
7857	0	32748	
7858	0	32868	
7859	0	32816	
7860	0	32836	
7861	0	32784	
7862	0	32798	
7863	0	32864	
7864	0	32860	
7865	0	32760	
7866	0	32709	
7867	0	32712	
7868	0	32644	
7869	0	32708	
7870	0	32788	
7871	0	32880	
7872	0	32868	
7873	0	32884	
7874	0	32892	
7875	0	32856	
7876	0	32885	
7877	0	32840	
7878	0	32924	
7879	0	32832	
7880	0	32774	
7881	0	32824	
7882	0	32780	
7883	0	32812	
7884	0	32728	
7885	0	32728	
7886	0	32700	
7887	0	32688	
7888	0	32714	
7889	0	32720	
7890	0	32688	
7891	0	32668	
7892	0	32748	
7893	0	32749	
7894	0	32620	
7895	0	32652	
7896	0	32653	
7897	0	32756	
7898	0	32740	
7899	0	32804	
7900	0	32860	
7901	0	32902	
7902	0	32804	
7903	0	32952	
7904	0	32880	
7905	0	32704	
7906	0	32640	
7907	0	32764	
7908	0	32628	
7909	0	32688	
7910	0	32724	
7911	0	32848	
7912	0	32757	
7913	0	32748	
7914	0	32756	
7915	0	32852	
7916	0	32864	
7917	0	32844	
7918	0	32800	
7919	0	32782	
7920	0	32844	
7921	0	32900	
7922	0	32932	
7923	0	32918	
7924	0	32856	
7925	0	32868	
7926	0	32829	
7927	0	32740	
7928	0	32756	
7929	0	32718	
7930	0	32749	
7931	0	32864	
7932	0	32768	
7933	0	32800	
7934	0	32788	
7935	0	32788	
7936	0	32828	
7937	0	32832	
7938	0	32813	
7939	0	32748	
7940	0	32804	
7941	0	32869	
7942	0	32860	
7943	0	32796	
7944	0	32728	
7945	0	32776	
7946	0	32756	
7947	0	32697	
7948	0	32680	
7949	0	32692	
7950	0	32712	
7951	0	32772	
7952	0	32804	
7953	0	32840	
7954	0	32772	
7955	0	32753	
7956	0	32804	
7957	0	32788	
7958	0	32820	
7959	0	32748	
7960	0	32794	
7961	0	32852	
7962	0	32820	
7963	0	32834	
7964	0	32776	
7965	0	32792	
7966	0	32792	
7967	0	32716	
7968	0	32716	
7969	0	32752	
7970	0	32688	
7971	0	32840	
7972	0	32816	
7973	0	32768	
7974	0	32832	
7975	0	32760	
7976	0	32820	
7977	0	32829	
7978	0	32808	
7979	0	32724	
7980	0	32785	
7981	0	32760	
7982	0	32828	
7983	0	32840	
7984	0	32744	
7985	0	32770	
7986	0	32734	
7987	0	32756	
7988	0	32744	
7989	0	32721	
7990	0	32740	
7991	0	32812	
7992	0	32776	
7993	0	32768	
7994	0	32784	
7995	0	32748	
7996	0	32772	
7997	0	32829	
7998	0	32756	
7999	0	32784	
8000	0	32836	
8001	0	32920	
8002	0	32844	
8003	0	32812	
8004	0	32740	
8005	0	32728	
8006	0	32720	
8007	0	32750	
8008	0	32716	
8009	0	32752	
8010	0	32764	
8011	0	32860	
8012	0	32788	
8013	0	32764	
8014	0	32796	
8015	0	32728	
8016	0	32768	
8017	0	32780	
8018	0	32808	
8019	0	32817	
8020	0	32804	
8021	0	32792	
8022	0	32876	
8023	0	32732	
8024	0	32801	
8025	0	32748	
8026	0	32805	
8027	0	32772	
8028	0	32660	
8029	0	32724	
8030	0	32753	
8031	0	32756	
8032	0	32724	
8033	0	32792	
8034	0	32788	
8035	0	32820	
8036	0	32860	
8037	0	32854	
8038	0	32840	
8039	0	32828	
8040	0	32748	
8041	0	32808	
8042	0	32880	
8043	0	32800	
8044	0	32772	
8045	0	32698	
8046	0	32788	
8047	0	32740	
8048	0	32720	
8049	0	32700	
8050	0	32716	
8051	0	32716	
8052	0	32716	
8053	0	32780	
8054	0	32804	
8055	0	32812	
8056	0	32774	
8057	0	32832	
8058	0	32744	
8059	0	32846	
8060	0	32788	
8061	0	32812	
8062	0	32836	
8063	0	32900	
8064	0	32701	
8065	0	32706	
8066	0	32772	
8067	0	32764	
8068	0	32748	
8069	0	32724	
8070	0	32752	
8071	0	32704	
8072	0	32830	
8073	0	32820	
8074	0	32784	
8075	0	32769	
8076	0	32852	
8077	0	32820	
8078	0	32808	
8079	0	32776	
8080	0	32848	
8081	0	32764	
8082	0	32900	
8083	0	32772	
8084	0	32784	
8085	0	32772	
8086	0	32756	
8087	0	32732	
8088	0	32728	
8089	0	32724	
8090	0	32720	
8091	0	32760	
8092	0	32720	
8093	0	32860	
8094	0	32776	
8095	0	32804	
8096	0	32820	
8097	0	32724	
8098	0	32736	
8099	0	32840	
8100	0	32808	
8101	0	32800	
8102	0	32852	
8103	0	32764	
8104	0	32816	
8105	0	32784	
8106	0	32708	
8107	0	32822	
8108	0	32720	
8109	0	32777	
8110	0	32748	
8111	0	32772	
8112	0	32764	
8113	0	32772	
8114	0	32892	
8115	0	32804	
8116	0	32772	
8117	0	32816	
8118	0	32820	
8119	0	32820	
8120	0	32734	
8121	0	32812	
8122	0	32824	
8123	0	32724	
8124	0	32796	
8125	0	32768	
8126	0	32756	
8127	0	32744	
8128	0	32781	
8129	0	32694	
8130	0	32719	
8131	0	32788	
8132	0	32732	
8133	0	32768	
8134	0	32784	
8135	0	32752	
8136	0	32868	
8137	0	32772	
8138	0	32788	
8139	0	32768	
8140	0	32804	
8141	0	32812	
8142	0	32876	
8143	0	32812	
8144	0	32750	
8145	0	32788	
8146	0	32756	
8147	0	32700	
8148	0	32720	
8149	0	32701	
8150	0	32704	
8151	0	32756	
8152	0	32692	
8153	0	32780	
8154	0	32748	
8155	0	32840	
8156	0	32808	
8157	0	32784	
8158	0	32836	
8159	0	32870	
8160	0	32780	
8161	0	32836	
8162	0	32844	
8163	0	32768	
8164	0	32768	
8165	0	32741	
8166	0	32745	
8167	0	32709	
8168	0	32680	
8169	0	32708	
8170	0	32736	
8171	0	32820	
8172	0	32816	
8173	0	32840	
8174	0	32781	
8175	0	32800	
8176	0	32789	
8177	0	32800	
8178	0	32840	
8179	0	32802	
8180	0	32789	
8181	0	32748	
8182	0	32862	
8183	0	32832	
8184	0	32793	
8185	0	32740	
8186	0	32752	
8187	0	32716	
8188	0	32692	
8189	0	32776	
8190	0	32772	
8191	0	32776	
8192	0	32744	
8193	0	32804	
8194	0	32792	
8195	0	32804	
8196	0	32804	
8197	0	32792	
8198	0	32812	
8199	0	32764	
8200	0	32824	
8201	0	32836	
8202	0	32824	
8203	0	32828	
8204	0	32724	
8205	0	32766	
8206	0	32748	
8207	0	32724	
8208	0	32680	
8209	0	32720	
8210	0	32712	
8211	0	32772	
8212	0	32824	
8213	0	32772	
8214	0	32764	
8215	0	32797	
8216	0	32840	
8217	0	32868	
8218	0	32758	
8219	0	32792	
8220	0	32825	
8221	0	32852	
8222	0	32872	
8223	0	32860	
8224	0	32824	
8225	0	32750	
8226	0	32716	
8227	0	32724	
8228	0	32692	
8229	0	32700	
8230	0	32684	
8231	0	32782	
8232	0	32792	
8233	0	32788	
8234	0	32820	
8235	0	32861	
8236	0	32756	
8237	0	32776	
8238	0	32768	
8239	0	32784	
8240	0	32744	
8241	0	32840	
8242	0	32830	
8243	0	32796	
8244	0	32892	
8245	0	32752	
8246	0	32792	
8247	0	32732	
8248	0	32700	
8249	0	32708	
8250	0	32700	
8251	0	32748	
8252	0	32760	
8253	0	32848	
8254	0	32784	
8255	0	32772	
8256	0	32885	
8257	0	32785	
8258	0	32792	
8259	0	32774	
8260	0	32732	
8261	0	32793	
8262	0	32872	
8263	0	32788	
8264	0	32720	
8265	0	32784	
8266	0	32716	
8267	0	32708	
8268	0	32724	
8269	0	32684	
8270	0	32757	
8271	0	32805	
8272	0	32804	
8273	0	32760	
8274	0	32816	
8275	0	32844	
8276	0	32804	
8277	0	32800	
8278	0	32770	
8279	0	32766	
8280	0	32828	
8281	0	32897	
8282	0	32800	
8283	0	32820	
8284	0	32760	
8285	0	32694	
8286	0	32732	
8287	0	32752	
8288	0	32720	
8289	0	32712	
8290	0	32740	
8291	0	32764	
8292	0	32786	
8293	0	32768	
8294	0	32772	
8295	0	32868	
8296	0	32732	
8297	0	32800	
8298	0	32856	
8299	0	32804	
8300	0	32784	
8301	0	32820	
8302	0	32908	
8303	0	32808	
8304	0	32776	
8305	0	32712	
8306	0	32752	
8307	0	32796	
8308	0	32720	
8309	0	32728	
8310	0	32702	
8311	0	32780	
8312	0	32718	
8313	0	32792	
8314	0	32826	
8315	0	32864	
8316	0	32748	
8317	0	32748	
8318	0	32820	
8319	0	32818	
8320	0	32788	
8321	0	32816	
8322	0	32868	
8323	0	32834	
8324	0	32776	
8325	0	32784	
8326	0	32744	
8327	0	32752	
8328	0	32728	
8329	0	32764	
8330	0	32744	
8331	0	32808	
8332	0	32716	
8333	0	32780	
8334	0	32801	
8335	0	32832	
8336	0	32841	
8337	0	32792	
8338	0	32807	
8339	0	32900	
8340	0	32816	
8341	0	32800	
8342	0	32780	
8343	0	32772	
8344	0	32704	
8345	0	32717	
8346	0	32748	
8347	0	32812	
8348	0	32732	
8349	0	32685	
8350	0	32692	
8351	0	32760	
8352	0	32768	
8353	0	32740	
8354	0	32732	
8355	0	32744	
8356	0	32728	
8357	0	32766	
8358	0	32708	
8359	0	32812	
8360	0	32785	
8361	0	32796	
8362	0	32844	
8363	0	32812	
8364	0	32812	
8365	0	32788	
8366	0	32784	
8367	0	32788	
8368	0	32776	
8369	0	32780	
8370	0	32800	
8371	0	32800	
8372	0	32854	
8373	0	32868	
8374	0	32805	
8375	0	32868	
8376	0	32820	
8377	0	32852	
8378	0	32768	
8379	0	32774	
8380	0	32798	
8381	0	32812	
8382	0	32876	
8383	0	32780	
8384	0	32800	
8385	0	32800	
8386	0	32732	
8387	0	32744	
8388	0	32766	
8389	0	32720	
8390	0	32736	
8391	0	32764	
8392	0	32788	
8393	0	32764	
8394	0	32828	
8395	0	32800	
8396	0	32808	
8397	0	32776	
8398	0	32852	
8399	0	32804	
8400	0	32720	
8401	0	32836	
8402	0	32744	
8403	0	32804	
8404	0	32716	
8405	0	32745	
8406	0	32757	
8407	0	32789	
8408	0	32726	
8409	0	32680	
8410	0	32728	
8411	0	32759	
8412	0	32788	
8413	0	32844	
8414	0	32860	
8415	0	32814	
8416	0	32792	
8417	0	32732	
8418	0	32788	
8419	0	32841	
8420	0	32728	
8421	0	32817	
8422	0	32900	
8423	0	32804	
8424	0	32772	
8425	0	32820	
8426	0	32732	
8427	0	32772	
8428	0	32664	
8429	0	32716	
8430	0	32734	
8431	0	32762	
8432	0	32752	
8433	0	32804	
8434	0	32740	
8435	0	32752	
8436	0	32780	
8437	0	32844	
8438	0	32772	
8439	0	32824	
8440	0	32749	
8441	0	32868	
8442	0	32844	
8443	0	32872	
8444	0	32844	
8445	0	32788	
8446	0	32788	
8447	0	32699	
8448	0	32762	
8449	0	32712	
8450	0	32780	
8451	0	32728	
8452	0	32708	
8453	0	32740	
8454	0	32860	
8455	0	32832	
8456	0	32792	
8457	0	32812	
8458	0	32792	
8459	0	32812	
8460	0	32820	
8461	0	32752	
8462	0	32884	
8463	0	32824	
8464	0	32741	
8465	0	32708	
8466	0	32732	
8467	0	32732	
8468	0	32692	
8469	0	32688	
8470	0	32742	
8471	0	32752	
8472	0	32862	
8473	0	32832	
8474	0	32817	
8475	0	32796	
8476	0	32756	
8477	0	32832	
8478	0	32838	
8479	0	32726	
8480	0	32820	
8481	0	32840	
8482	0	32820	
8483	0	32796	
8484	0	32804	
8485	0	32740	
8486	0	32800	
8487	0	32769	
8488	0	32676	
8489	0	32724	
8490	0	32728	
8491	0	32793	
8492	0	32856	
8493	0	32768	
8494	0	32773	
8495	0	32764	
8496	0	32846	
8497	0	32809	
8498	0	32753	
8499	0	32748	
8500	0	32808	
8501	0	32800	
8502	0	32864	
8503	0	32780	
8504	0	32856	
8505	0	32728	
8506	0	32752	
8507	0	32744	
8508	0	32702	
8509	0	32656	
8510	0	32700	
8511	0	32788	
8512	0	32804	
8513	0	32775	
8514	0	32800	
8515	0	32830	
8516	0	32832	
8517	0	32796	
8518	0	32848	
8519	0	32797	
8520	0	32781	
8521	0	32756	
8522	0	32816	
8523	0	32808	
8524	0	32772	
8525	0	32793	
8526	0	32752	
8527	0	32740	
8528	0	32696	
8529	0	32772	
8530	0	32768	
8531	0	32789	
8532	0	32832	
8533	0	32780	
8534	0	32804	
8535	0	32740	
8536	0	32756	
8537	0	32764	
8538	0	32825	
8539	0	32837	
8540	0	32824	
8541	0	32772	
8542	0	32820	
8543	0	32848	
8544	0	32782	
8545	0	32716	
8546	0	32704	
8547	0	32705	
8548	0	32712	
8549	0	32692	
8550	0	32750	
8551	0	32784	
8552	0	32816	
8553	0	32805	
8554	0	32858	
8555	0	32820	
8556	0	32792	
8557	0	32774	
8558	0	32812	
8559	0	32858	
8560	0	32736	
8561	0	32748	
8562	0	32876	
8563	0	32772	
8564	0	32848	
8565	0	32800	
8566	0	32726	
8567	0	32720	
8568	0	32698	
8569	0	32725	
8570	0	32718	
8571	0	32800	
8572	0	32840	
8573	0	32853	
8574	0	32769	
8575	0	32804	
8576	0	32805	
8577	0	32788	
8578	0	32804	
8579	0	32804	
8580	0	32801	
8581	0	32880	
8582	0	32856	
8583	0	32796	
8584	0	32696	
8585	0	32720	
8586	0	32776	
8587	0	32741	
8588	0	32708	
8589	0	32704	
8590	0	32700	
8591	0	32821	
8592	0	32840	
8593	0	32844	
8594	0	32769	
8595	0	32820	
8596	0	32856	
8597	0	32756	
8598	0	32760	
8599	0	32769	
8600	0	32736	
8601	0	32776	
8602	0	32816	
8603	0	32820	
8604	0	32792	
8605	0	32733	
8606	0	32712	
8607	0	32736	
8608	0	32744	
8609	0	32776	
8610	0	32772	
8611	0	32724	
8612	0	32804	
8613	0	32788	
