# OpenSignals Text File Format. Version 1
# {"00:07:80:4D:2E:9E": {"position": 0, "device": "biosignalsplux", "device name": "00:07:80:4D:2E:9E", "device connection": "BTH00:07:80:4D:2E:9E", "sampling rate": 1000, "resolution": [16], "firmware version": 774, "comments": "", "keywords": "", "mode": 0, "sync interval": 2, "date": "2020-7-29", "time": "18:8:2.918", "channels": [1], "sensor": ["EMG"], "label": ["CH1"], "column": ["nSeq", "DI", "CH1"], "special": [{}], "digital IO": [0, 1]}}
# EndOfHeader
0	0	32788	
1	0	32826	
2	0	32852	
3	0	32869	
4	0	32816	
5	0	32824	
6	0	32832	
7	0	32884	
8	0	32900	
9	0	32824	
10	0	32860	
11	0	32820	
12	0	32784	
13	0	32784	
14	0	32678	
15	0	32624	
16	0	32664	
17	0	32620	
18	0	32564	
19	0	32712	
20	0	32780	
21	0	32808	
22	0	32865	
23	0	32896	
24	0	32914	
25	0	32928	
26	0	32868	
27	0	32852	
28	0	32772	
29	0	32797	
30	0	32852	
31	0	32732	
32	0	32700	
33	0	32816	
34	0	32820	
35	0	32706	
36	0	32639	
37	0	32648	
38	0	32648	
39	0	32724	
40	0	32759	
41	0	32752	
42	0	32872	
43	0	32857	
44	0	32772	
45	0	32836	
46	0	32813	
47	0	32884	
48	0	32810	
49	0	32806	
50	0	32840	
51	0	32804	
52	0	32796	
53	0	32688	
54	0	32764	
55	0	32708	
56	0	32672	
57	0	32644	
58	0	32639	
59	0	32688	
60	0	32744	
61	0	32812	
62	0	32940	
63	0	32868	
64	0	32892	
65	0	32828	
66	0	32876	
67	0	32976	
68	0	32844	
69	0	32646	
70	0	32764	
71	0	32824	
72	0	32828	
73	0	32736	
74	0	32741	
75	0	32702	
76	0	32732	
77	0	32664	
78	0	32644	
79	0	32684	
80	0	32740	
81	0	32860	
82	0	32884	
83	0	32845	
84	0	32856	
85	0	32808	
86	0	32844	
87	0	32828	
88	0	32888	
89	0	32780	
90	0	32904	
91	0	32920	
92	0	32788	
93	0	32762	
94	0	32708	
95	0	32800	
96	0	32772	
97	0	32598	
98	0	32560	
99	0	32676	
100	0	32694	
101	0	32808	
102	0	32784	
103	0	32796	
104	0	32844	
105	0	32877	
106	0	32836	
107	0	32864	
108	0	32848	
109	0	32776	
110	0	32888	
111	0	32893	
112	0	32736	
113	0	32676	
114	0	32588	
115	0	32744	
116	0	32749	
117	0	32649	
118	0	32733	
119	0	32760	
120	0	32836	
121	0	32864	
122	0	32854	
123	0	32888	
124	0	32824	
125	0	32804	
126	0	32790	
127	0	32788	
128	0	32740	
129	0	32804	
130	0	32864	
131	0	32840	
132	0	32788	
133	0	32740	
134	0	32724	
135	0	32660	
136	0	32652	
137	0	32609	
138	0	32588	
139	0	32696	
140	0	32748	
141	0	32868	
142	0	32844	
143	0	32892	
144	0	32824	
145	0	32908	
146	0	32852	
147	0	32884	
148	0	32800	
149	0	32800	
150	0	32864	
151	0	32844	
152	0	32812	
153	0	32752	
154	0	32760	
155	0	32700	
156	0	32677	
157	0	32631	
158	0	32620	
159	0	32720	
160	0	32828	
161	0	32761	
162	0	32792	
163	0	32840	
164	0	32824	
165	0	32720	
166	0	32772	
167	0	32873	
168	0	32856	
169	0	32816	
170	0	32909	
171	0	32900	
172	0	32812	
173	0	32676	
174	0	32712	
175	0	32778	
176	0	32716	
177	0	32688	
178	0	32686	
179	0	32752	
180	0	32720	
181	0	32828	
182	0	32804	
183	0	32766	
184	0	32740	
185	0	32888	
186	0	33036	
187	0	32933	
188	0	32836	
189	0	32768	
190	0	32814	
191	0	32784	
192	0	32792	
193	0	32732	
194	0	32668	
195	0	32732	
196	0	32692	
197	0	32656	
198	0	32676	
199	0	32670	
200	0	32756	
201	0	32776	
202	0	32824	
203	0	32864	
204	0	32848	
205	0	32884	
206	0	32904	
207	0	32916	
208	0	32853	
209	0	32789	
210	0	32796	
211	0	32776	
212	0	32760	
213	0	32645	
214	0	32730	
215	0	32696	
216	0	32676	
217	0	32712	
218	0	32728	
219	0	32704	
220	0	32740	
221	0	32772	
222	0	32832	
223	0	32916	
224	0	32908	
225	0	32784	
226	0	32804	
227	0	32800	
228	0	32841	
229	0	32864	
230	0	32896	
231	0	32860	
232	0	32852	
233	0	32782	
234	0	32696	
235	0	32693	
236	0	32665	
237	0	32662	
238	0	32588	
239	0	32684	
240	0	32736	
241	0	32740	
242	0	32790	
243	0	32872	
244	0	32784	
245	0	32812	
246	0	32828	
247	0	32854	
248	0	32832	
249	0	32885	
250	0	32900	
251	0	32880	
252	0	32797	
253	0	32724	
254	0	32640	
255	0	32736	
256	0	32676	
257	0	32686	
258	0	32676	
259	0	32712	
260	0	32729	
261	0	32848	
262	0	32788	
263	0	32880	
264	0	32780	
265	0	32848	
266	0	32748	
267	0	32877	
268	0	32869	
269	0	32776	
270	0	32860	
271	0	32868	
272	0	32813	
273	0	32764	
274	0	32684	
275	0	32728	
276	0	32738	
277	0	32660	
278	0	32608	
279	0	32764	
280	0	32765	
281	0	32793	
282	0	32770	
283	0	32944	
284	0	32873	
285	0	32828	
286	0	32817	
287	0	32804	
288	0	32829	
289	0	32812	
290	0	32852	
291	0	32776	
292	0	32700	
293	0	32732	
294	0	32860	
295	0	32908	
296	0	32668	
297	0	32564	
298	0	32528	
299	0	32596	
300	0	32788	
301	0	32879	
302	0	32860	
303	0	32788	
304	0	32821	
305	0	32797	
306	0	32847	
307	0	32832	
308	0	32840	
309	0	32800	
310	0	32876	
311	0	32912	
312	0	32868	
313	0	32872	
314	0	32932	
315	0	32824	
316	0	32693	
317	0	32532	
318	0	32612	
319	0	32668	
320	0	32716	
321	0	32822	
322	0	32812	
323	0	32773	
324	0	32840	
325	0	32848	
326	0	32871	
327	0	32800	
328	0	32857	
329	0	32781	
330	0	32876	
331	0	32837	
332	0	32872	
333	0	32792	
334	0	32672	
335	0	32668	
336	0	32672	
337	0	32622	
338	0	32628	
339	0	32825	
340	0	32768	
341	0	32824	
342	0	32840	
343	0	32848	
344	0	32916	
345	0	32812	
346	0	32804	
347	0	32780	
348	0	32814	
349	0	32863	
350	0	32828	
351	0	32900	
352	0	32840	
353	0	32708	
354	0	32696	
355	0	32664	
356	0	32680	
357	0	32700	
358	0	32688	
359	0	32684	
360	0	32709	
361	0	32828	
362	0	32784	
363	0	32934	
364	0	33046	
365	0	32917	
366	0	32797	
367	0	32704	
368	0	32776	
369	0	32922	
370	0	32989	
371	0	32830	
372	0	32606	
373	0	32606	
374	0	32644	
375	0	32718	
376	0	32724	
377	0	32656	
378	0	32688	
379	0	32686	
380	0	32764	
381	0	32808	
382	0	32908	
383	0	32932	
384	0	32920	
385	0	32868	
386	0	32789	
387	0	32800	
388	0	32724	
389	0	32733	
390	0	32808	
391	0	32928	
392	0	32856	
393	0	32684	
394	0	32636	
395	0	32708	
396	0	32680	
397	0	32576	
398	0	32645	
399	0	32748	
400	0	32752	
401	0	32872	
402	0	32820	
403	0	32840	
404	0	32908	
405	0	32852	
406	0	32828	
407	0	32832	
408	0	32844	
409	0	32780	
410	0	32920	
411	0	32904	
412	0	32830	
413	0	32704	
414	0	32604	
415	0	32644	
416	0	32756	
417	0	32629	
418	0	32540	
419	0	32652	
420	0	32748	
421	0	32876	
422	0	32877	
423	0	32824	
424	0	32836	
425	0	32784	
426	0	32816	
427	0	32904	
428	0	32912	
429	0	32956	
430	0	32908	
431	0	32908	
432	0	32688	
433	0	32680	
434	0	32672	
435	0	32660	
436	0	32712	
437	0	32676	
438	0	32637	
439	0	32656	
440	0	32685	
441	0	32692	
442	0	32846	
443	0	32844	
444	0	32840	
445	0	32752	
446	0	32797	
447	0	32808	
448	0	32856	
449	0	32876	
450	0	32848	
451	0	32877	
452	0	32855	
453	0	32648	
454	0	32657	
455	0	32600	
456	0	32732	
457	0	32668	
458	0	32654	
459	0	32688	
460	0	32736	
461	0	32848	
462	0	32800	
463	0	32896	
464	0	32928	
465	0	32913	
466	0	32948	
467	0	32892	
468	0	33000	
469	0	32956	
470	0	32836	
471	0	32788	
472	0	32792	
473	0	32686	
474	0	32798	
475	0	32856	
476	0	32712	
477	0	32608	
478	0	32496	
479	0	32612	
480	0	32624	
481	0	32800	
482	0	32861	
483	0	32888	
484	0	32792	
485	0	32824	
486	0	32844	
487	0	32796	
488	0	32800	
489	0	32828	
490	0	32812	
491	0	32853	
492	0	32732	
493	0	32753	
494	0	32685	
495	0	32704	
496	0	32712	
497	0	32568	
498	0	32576	
499	0	32681	
500	0	32772	
501	0	32884	
502	0	32848	
503	0	32832	
504	0	32800	
505	0	32856	
506	0	32834	
507	0	32848	
508	0	32928	
509	0	32897	
510	0	32904	
511	0	32844	
512	0	32764	
513	0	32676	
514	0	32670	
515	0	32704	
516	0	32840	
517	0	32668	
518	0	32615	
519	0	32672	
520	0	32638	
521	0	32768	
522	0	32848	
523	0	32836	
524	0	32886	
525	0	32964	
526	0	32936	
527	0	32938	
528	0	32796	
529	0	32700	
530	0	32824	
531	0	32884	
532	0	32736	
533	0	32756	
534	0	32700	
535	0	32663	
536	0	32712	
537	0	32572	
538	0	32630	
539	0	32688	
540	0	32740	
541	0	32869	
542	0	32820	
543	0	32925	
544	0	32830	
545	0	32877	
546	0	32910	
547	0	32816	
548	0	32792	
549	0	32772	
550	0	32792	
551	0	32868	
552	0	32846	
553	0	32753	
554	0	32684	
555	0	32652	
556	0	32712	
557	0	32628	
558	0	32620	
559	0	32653	
560	0	32748	
561	0	32806	
562	0	32932	
563	0	32816	
564	0	32846	
565	0	32812	
566	0	32804	
567	0	32817	
568	0	32856	
569	0	32840	
570	0	32896	
571	0	32909	
572	0	32928	
573	0	32740	
574	0	32652	
575	0	32620	
576	0	32677	
577	0	32680	
578	0	32580	
579	0	32654	
580	0	32788	
581	0	32836	
582	0	32900	
583	0	32860	
584	0	32864	
585	0	32764	
586	0	32717	
587	0	32784	
588	0	32824	
589	0	32836	
590	0	32871	
591	0	32868	
592	0	32784	
593	0	32724	
594	0	32700	
595	0	32712	
596	0	32765	
597	0	32676	
598	0	32676	
599	0	32664	
600	0	32756	
601	0	32780	
602	0	32856	
603	0	32880	
604	0	32848	
605	0	32832	
606	0	32808	
607	0	32832	
608	0	32816	
609	0	32868	
610	0	32848	
611	0	32864	
612	0	32824	
613	0	32668	
614	0	32680	
615	0	32752	
616	0	32829	
617	0	32660	
618	0	32588	
619	0	32644	
620	0	32748	
621	0	32828	
622	0	32836	
623	0	32820	
624	0	32784	
625	0	32848	
626	0	32785	
627	0	32861	
628	0	32780	
629	0	32828	
630	0	32888	
631	0	32932	
632	0	32924	
633	0	32844	
634	0	32680	
635	0	32600	
636	0	32700	
637	0	32622	
638	0	32604	
639	0	32698	
640	0	32708	
641	0	32820	
642	0	32829	
643	0	32838	
644	0	32888	
645	0	32816	
646	0	32804	
647	0	32852	
648	0	32884	
649	0	32905	
650	0	32838	
651	0	32872	
652	0	32912	
653	0	32824	
654	0	32688	
655	0	32648	
656	0	32700	
657	0	32644	
658	0	32621	
659	0	32608	
660	0	32644	
661	0	32736	
662	0	32793	
663	0	32876	
664	0	32832	
665	0	32852	
666	0	32821	
667	0	32868	
668	0	32906	
669	0	32904	
670	0	32892	
671	0	32864	
672	0	32784	
673	0	32764	
674	0	32652	
675	0	32652	
676	0	32740	
677	0	32677	
678	0	32657	
679	0	32704	
680	0	32784	
681	0	32740	
682	0	32736	
683	0	32836	
684	0	32928	
685	0	32804	
686	0	32840	
687	0	32828	
688	0	32852	
689	0	32840	
690	0	32840	
691	0	32900	
692	0	32848	
693	0	32708	
694	0	32728	
695	0	32702	
696	0	32628	
697	0	32669	
698	0	32624	
699	0	32664	
700	0	32783	
701	0	32836	
702	0	32973	
703	0	32909	
704	0	32788	
705	0	32764	
706	0	32780	
707	0	32780	
708	0	32832	
709	0	32780	
710	0	32897	
711	0	32916	
712	0	32772	
713	0	32765	
714	0	32688	
715	0	32624	
716	0	32676	
717	0	32662	
718	0	32712	
719	0	32688	
720	0	32748	
721	0	32784	
722	0	32792	
723	0	32840	
724	0	32820	
725	0	32824	
726	0	32784	
727	0	32844	
728	0	32832	
729	0	32884	
730	0	32816	
731	0	32840	
732	0	32916	
733	0	32890	
734	0	32852	
735	0	32716	
736	0	32744	
737	0	32556	
738	0	32620	
739	0	32623	
740	0	32720	
741	0	32775	
742	0	32800	
743	0	32760	
744	0	32868	
745	0	32988	
746	0	32844	
747	0	32788	
748	0	32832	
749	0	32844	
750	0	32900	
751	0	32893	
752	0	32824	
753	0	32796	
754	0	32781	
755	0	32705	
756	0	32692	
757	0	32648	
758	0	32582	
759	0	32644	
760	0	32662	
761	0	32652	
762	0	32768	
763	0	32905	
764	0	32872	
765	0	32988	
766	0	33024	
767	0	32820	
768	0	32916	
769	0	32719	
770	0	32749	
771	0	32796	
772	0	32860	
773	0	32796	
774	0	32672	
775	0	32714	
776	0	32604	
777	0	32672	
778	0	32724	
779	0	32660	
780	0	32748	
781	0	32784	
782	0	32648	
783	0	32860	
784	0	32844	
785	0	32848	
786	0	32792	
787	0	32816	
788	0	32900	
789	0	32836	
790	0	32870	
791	0	32974	
792	0	32900	
793	0	32816	
794	0	32720	
795	0	32724	
796	0	32648	
797	0	32628	
798	0	32560	
799	0	32649	
800	0	32628	
801	0	32788	
802	0	32796	
803	0	32808	
804	0	32872	
805	0	32840	
806	0	32812	
807	0	32793	
808	0	32844	
809	0	32809	
810	0	32844	
811	0	32836	
812	0	32852	
813	0	32780	
814	0	32796	
815	0	32732	
816	0	32708	
817	0	32632	
818	0	32628	
819	0	32696	
820	0	32660	
821	0	32844	
822	0	32761	
823	0	32784	
824	0	32836	
825	0	32844	
826	0	32864	
827	0	32764	
828	0	32909	
829	0	32912	
830	0	32897	
831	0	32860	
832	0	32796	
833	0	32868	
834	0	32696	
835	0	32693	
836	0	32640	
837	0	32620	
838	0	32620	
839	0	32692	
840	0	32748	
841	0	32736	
842	0	32764	
843	0	32873	
844	0	32768	
845	0	32813	
846	0	32826	
847	0	32772	
848	0	32885	
849	0	32856	
850	0	32920	
851	0	32956	
852	0	32848	
853	0	32753	
854	0	32704	
855	0	32684	
856	0	32692	
857	0	32696	
858	0	32661	
859	0	32620	
860	0	32669	
861	0	32736	
862	0	32748	
863	0	32864	
864	0	32844	
865	0	32896	
866	0	32820	
867	0	32808	
868	0	32895	
869	0	32812	
870	0	32868	
871	0	32864	
872	0	32846	
873	0	32880	
874	0	32704	
875	0	32672	
876	0	32572	
877	0	32576	
878	0	32648	
879	0	32662	
880	0	32712	
881	0	32794	
882	0	32824	
883	0	32848	
884	0	32848	
885	0	32840	
886	0	32784	
887	0	32784	
888	0	32848	
889	0	32877	
890	0	32836	
891	0	32920	
892	0	32968	
893	0	32806	
894	0	32776	
895	0	32684	
896	0	32612	
897	0	32566	
898	0	32569	
899	0	32656	
900	0	32801	
901	0	32820	
902	0	32812	
903	0	32868	
904	0	32848	
905	0	32828	
906	0	32792	
907	0	32848	
908	0	32868	
909	0	32804	
910	0	32820	
911	0	32905	
912	0	32813	
913	0	32740	
914	0	32744	
915	0	32680	
916	0	32740	
917	0	32662	
918	0	32644	
919	0	32624	
920	0	32736	
921	0	32812	
922	0	32910	
923	0	32992	
924	0	32945	
925	0	32792	
926	0	32768	
927	0	32712	
928	0	32856	
929	0	32854	
930	0	32873	
931	0	32828	
932	0	32848	
933	0	32764	
934	0	32676	
935	0	32656	
936	0	32692	
937	0	32628	
938	0	32692	
939	0	32728	
940	0	32748	
941	0	32840	
942	0	32844	
943	0	32844	
944	0	32829	
945	0	32784	
946	0	32840	
947	0	32865	
948	0	32885	
949	0	32872	
950	0	32840	
951	0	32816	
952	0	32868	
953	0	32768	
954	0	32829	
955	0	32796	
956	0	32704	
957	0	32588	
958	0	32517	
959	0	32613	
960	0	32728	
961	0	32752	
962	0	32808	
963	0	32836	
964	0	32856	
965	0	32838	
966	0	32780	
967	0	32828	
968	0	32860	
969	0	32880	
970	0	32788	
971	0	32880	
972	0	32848	
973	0	32704	
974	0	32656	
975	0	32736	
976	0	32669	
977	0	32676	
978	0	32719	
979	0	32714	
980	0	32706	
981	0	32804	
982	0	32720	
983	0	32804	
984	0	32860	
985	0	32832	
986	0	32796	
987	0	32868	
988	0	32952	
989	0	32841	
990	0	32812	
991	0	32788	
992	0	32793	
993	0	32848	
994	0	32820	
995	0	32732	
996	0	32629	
997	0	32648	
998	0	32528	
999	0	32660	
1000	0	32733	
1001	0	32776	
1002	0	32908	
1003	0	32884	
1004	0	32889	
1005	0	32784	
1006	0	32749	
1007	0	32782	
1008	0	32824	
1009	0	32948	
1010	0	32964	
1011	0	32848	
1012	0	32848	
1013	0	32782	
1014	0	32712	
1015	0	32716	
1016	0	32700	
1017	0	32636	
1018	0	32592	
1019	0	32664	
1020	0	32676	
1021	0	32844	
1022	0	32904	
1023	0	32836	
1024	0	32848	
1025	0	32732	
1026	0	32788	
1027	0	32768	
1028	0	32852	
1029	0	32824	
1030	0	32860	
1031	0	32801	
1032	0	32848	
1033	0	32724	
1034	0	32716	
1035	0	32718	
1036	0	32748	
1037	0	32620	
1038	0	32689	
1039	0	32685	
1040	0	32680	
1041	0	32748	
1042	0	32794	
1043	0	32848	
1044	0	32834	
1045	0	32860	
1046	0	32920	
1047	0	32852	
1048	0	32965	
1049	0	32796	
1050	0	32856	
1051	0	32836	
1052	0	32837	
1053	0	32728	
1054	0	32724	
1055	0	32668	
1056	0	32672	
1057	0	32660	
1058	0	32608	
1059	0	32708	
1060	0	32784	
1061	0	32876	
1062	0	32868	
1063	0	32884	
1064	0	32858	
1065	0	32774	
1066	0	32808	
1067	0	32860	
1068	0	32796	
1069	0	32840	
1070	0	32844	
1071	0	32868	
1072	0	32772	
1073	0	32782	
1074	0	32704	
1075	0	32584	
1076	0	32672	
1077	0	32676	
1078	0	32644	
1079	0	32652	
1080	0	32776	
1081	0	32766	
1082	0	32796	
1083	0	32803	
1084	0	32844	
1085	0	32849	
1086	0	32760	
1087	0	32848	
1088	0	32904	
1089	0	32800	
1090	0	32820	
1091	0	32820	
1092	0	32877	
1093	0	32773	
1094	0	32708	
1095	0	32736	
1096	0	32768	
1097	0	32740	
1098	0	32676	
1099	0	32712	
1100	0	32776	
1101	0	32856	
1102	0	32860	
1103	0	32904	
1104	0	32884	
1105	0	32805	
1106	0	32836	
1107	0	32864	
1108	0	32937	
1109	0	32880	
1110	0	32904	
1111	0	32845	
1112	0	32830	
1113	0	32756	
1114	0	32684	
1115	0	32672	
1116	0	32708	
1117	0	32720	
1118	0	32612	
1119	0	32692	
1120	0	32712	
1121	0	32864	
1122	0	32836	
1123	0	32776	
1124	0	32748	
1125	0	32792	
1126	0	32813	
1127	0	32892	
1128	0	32878	
1129	0	32808	
1130	0	32828	
1131	0	32881	
1132	0	32796	
1133	0	32636	
1134	0	32629	
1135	0	32673	
1136	0	32772	
1137	0	32732	
1138	0	32748	
1139	0	32868	
1140	0	32860	
1141	0	32704	
1142	0	32672	
1143	0	32761	
1144	0	32728	
1145	0	32812	
1146	0	32828	
1147	0	32901	
1148	0	32900	
1149	0	32908	
1150	0	32800	
1151	0	32840	
1152	0	32844	
1153	0	32732	
1154	0	32748	
1155	0	32758	
1156	0	32624	
1157	0	32570	
1158	0	32624	
1159	0	32668	
1160	0	32764	
1161	0	32844	
1162	0	32876	
1163	0	32840	
1164	0	32908	
1165	0	32797	
1166	0	32805	
1167	0	32865	
1168	0	32892	
1169	0	32816	
1170	0	32804	
1171	0	32880	
1172	0	32804	
1173	0	32760	
1174	0	32740	
1175	0	32714	
1176	0	32756	
1177	0	32688	
1178	0	32624	
1179	0	32676	
1180	0	32724	
1181	0	32804	
1182	0	32772	
1183	0	32808	
1184	0	32904	
1185	0	32756	
1186	0	32748	
1187	0	32816	
1188	0	32852	
1189	0	32860	
1190	0	32812	
1191	0	32936	
1192	0	32920	
1193	0	32789	
1194	0	32650	
1195	0	32720	
1196	0	32720	
1197	0	32622	
1198	0	32584	
1199	0	32724	
1200	0	32736	
1201	0	32784	
1202	0	32804	
1203	0	32904	
1204	0	32908	
1205	0	32808	
1206	0	32808	
1207	0	32816	
1208	0	32852	
1209	0	32896	
1210	0	32804	
1211	0	32804	
1212	0	32749	
1213	0	32744	
1214	0	32780	
1215	0	32713	
1216	0	32824	
1217	0	32680	
1218	0	32656	
1219	0	32664	
1220	0	32744	
1221	0	32773	
1222	0	32764	
1223	0	32860	
1224	0	32854	
1225	0	32932	
1226	0	32908	
1227	0	32820	
1228	0	32788	
1229	0	32756	
1230	0	32865	
1231	0	32876	
1232	0	32860	
1233	0	32732	
1234	0	32608	
1235	0	32680	
1236	0	32741	
1237	0	32585	
1238	0	32656	
1239	0	32744	
1240	0	32828	
1241	0	32804	
1242	0	32788	
1243	0	32796	
1244	0	32762	
1245	0	32772	
1246	0	32832	
1247	0	32844	
1248	0	32824	
1249	0	32848	
1250	0	32798	
1251	0	32846	
1252	0	32832	
1253	0	32692	
1254	0	32736	
1255	0	32696	
1256	0	32704	
1257	0	32681	
1258	0	32692	
1259	0	32708	
1260	0	32700	
1261	0	32785	
1262	0	32812	
1263	0	32800	
1264	0	32836	
1265	0	32805	
1266	0	32825	
1267	0	32820	
1268	0	32913	
1269	0	32892	
1270	0	32944	
1271	0	32848	
1272	0	32792	
1273	0	32789	
1274	0	32700	
1275	0	32700	
1276	0	32712	
1277	0	32646	
1278	0	32588	
1279	0	32684	
1280	0	32732	
1281	0	32720	
1282	0	32808	
1283	0	32805	
1284	0	32908	
1285	0	32897	
1286	0	32820	
1287	0	32905	
1288	0	32910	
1289	0	32772	
1290	0	32831	
1291	0	32841	
1292	0	32818	
1293	0	32776	
1294	0	32700	
1295	0	32700	
1296	0	32712	
1297	0	32656	
1298	0	32612	
1299	0	32676	
1300	0	32712	
1301	0	32804	
1302	0	32828	
1303	0	32824	
1304	0	32900	
1305	0	32848	
1306	0	32772	
1307	0	32864	
1308	0	32876	
1309	0	32904	
1310	0	32864	
1311	0	32856	
1312	0	32745	
1313	0	32690	
1314	0	32724	
1315	0	32792	
1316	0	32741	
1317	0	32676	
1318	0	32696	
1319	0	32776	
1320	0	32804	
1321	0	32748	
1322	0	32769	
1323	0	32830	
1324	0	32812	
1325	0	32816	
1326	0	32793	
1327	0	32836	
1328	0	32884	
1329	0	32852	
1330	0	32844	
1331	0	32817	
1332	0	32868	
1333	0	32776	
1334	0	32644	
1335	0	32598	
1336	0	32792	
1337	0	32756	
1338	0	32656	
1339	0	32572	
1340	0	32536	
1341	0	32740	
1342	0	32804	
1343	0	32836	
1344	0	32886	
1345	0	32768	
1346	0	32916	
1347	0	32949	
1348	0	32972	
1349	0	32852	
1350	0	32876	
1351	0	32804	
1352	0	32733	
1353	0	32744	
1354	0	32689	
1355	0	32696	
1356	0	32724	
1357	0	32696	
1358	0	32600	
1359	0	32590	
1360	0	32784	
1361	0	32812	
1362	0	32812	
1363	0	32820	
1364	0	32848	
1365	0	32921	
1366	0	32792	
1367	0	32806	
1368	0	32796	
1369	0	32844	
1370	0	32901	
1371	0	32884	
1372	0	32812	
1373	0	32728	
1374	0	32681	
1375	0	32669	
1376	0	32644	
1377	0	32692	
1378	0	32712	
1379	0	32708	
1380	0	32692	
1381	0	32772	
1382	0	32944	
1383	0	32896	
1384	0	32884	
1385	0	32780	
1386	0	32792	
1387	0	32856	
1388	0	32808	
1389	0	32828	
1390	0	32888	
1391	0	32892	
1392	0	32920	
1393	0	32813	
1394	0	32633	
1395	0	32660	
1396	0	32692	
1397	0	32636	
1398	0	32629	
1399	0	32716	
1400	0	32720	
1401	0	32729	
1402	0	32789	
1403	0	32824	
1404	0	32870	
1405	0	32900	
1406	0	32816	
1407	0	32800	
1408	0	32796	
1409	0	32804	
1410	0	32878	
1411	0	32928	
1412	0	32789	
1413	0	32780	
1414	0	32704	
1415	0	32716	
1416	0	32632	
1417	0	32600	
1418	0	32648	
1419	0	32692	
1420	0	32728	
1421	0	32916	
1422	0	32992	
1423	0	32904	
1424	0	32897	
1425	0	32692	
1426	0	32668	
1427	0	32700	
1428	0	32824	
1429	0	32829	
1430	0	32880	
1431	0	32948	
1432	0	32896	
1433	0	32804	
1434	0	32796	
1435	0	32720	
1436	0	32712	
1437	0	32578	
1438	0	32540	
1439	0	32640	
1440	0	32820	
1441	0	32840	
1442	0	32776	
1443	0	32844	
1444	0	32892	
1445	0	32824	
1446	0	32856	
1447	0	32839	
1448	0	32832	
1449	0	32840	
1450	0	32860	
1451	0	32836	
1452	0	32812	
1453	0	32760	
1454	0	32713	
1455	0	32676	
1456	0	32704	
1457	0	32660	
1458	0	32568	
1459	0	32660	
1460	0	32720	
1461	0	32844	
1462	0	32872	
1463	0	32932	
1464	0	32756	
1465	0	32840	
1466	0	33016	
1467	0	32916	
1468	0	32860	
1469	0	32788	
1470	0	32756	
1471	0	32764	
1472	0	32868	
1473	0	32720	
1474	0	32680	
1475	0	32677	
1476	0	32668	
1477	0	32712	
1478	0	32588	
1479	0	32672	
1480	0	32752	
1481	0	32812	
1482	0	32824	
1483	0	32836	
1484	0	32832	
1485	0	32876	
1486	0	32824	
1487	0	32836	
1488	0	32840	
1489	0	32784	
1490	0	32820	
1491	0	32848	
1492	0	32852	
1493	0	32776	
1494	0	32808	
1495	0	32758	
1496	0	32752	
1497	0	32656	
1498	0	32604	
1499	0	32612	
1500	0	32692	
1501	0	32756	
1502	0	32737	
1503	0	32852	
1504	0	32816	
1505	0	32916	
1506	0	32948	
1507	0	32960	
1508	0	33015	
1509	0	32774	
1510	0	32680	
1511	0	32784	
1512	0	32732	
1513	0	32740	
1514	0	32685	
1515	0	32728	
1516	0	32816	
1517	0	32725	
1518	0	32608	
1519	0	32636	
1520	0	32716	
1521	0	32797	
1522	0	32840	
1523	0	32828	
1524	0	32920	
1525	0	32876	
1526	0	32920	
1527	0	32796	
1528	0	32860	
1529	0	32800	
1530	0	32832	
1531	0	32872	
1532	0	32826	
1533	0	32732	
1534	0	32656	
1535	0	32684	
1536	0	32688	
1537	0	32672	
1538	0	32652	
1539	0	32692	
1540	0	32758	
1541	0	32864	
1542	0	32848	
1543	0	32892	
1544	0	32884	
1545	0	32828	
1546	0	32840	
1547	0	32820	
1548	0	32676	
1549	0	32720	
1550	0	32980	
1551	0	32992	
1552	0	32956	
1553	0	32718	
1554	0	32686	
1555	0	32640	
1556	0	32620	
1557	0	32640	
1558	0	32590	
1559	0	32721	
1560	0	32696	
1561	0	32878	
1562	0	32812	
1563	0	32814	
1564	0	32832	
1565	0	32856	
1566	0	32864	
1567	0	32892	
1568	0	32900	
1569	0	32782	
1570	0	32808	
1571	0	32865	
1572	0	32776	
1573	0	32745	
1574	0	32660	
1575	0	32686	
1576	0	32772	
1577	0	32612	
1578	0	32662	
1579	0	32672	
1580	0	32732	
1581	0	32780	
1582	0	32804	
1583	0	32890	
1584	0	32878	
1585	0	32872	
1586	0	32797	
1587	0	32784	
1588	0	32882	
1589	0	32992	
1590	0	32900	
1591	0	32812	
1592	0	32697	
1593	0	32680	
1594	0	32644	
1595	0	32740	
1596	0	32661	
1597	0	32652	
1598	0	32692	
1599	0	32668	
1600	0	32752	
1601	0	32832	
1602	0	32872	
1603	0	32878	
1604	0	32753	
1605	0	32757	
1606	0	32828	
1607	0	32828	
1608	0	32820	
1609	0	32840	
1610	0	32886	
1611	0	32857	
1612	0	32836	
1613	0	32772	
1614	0	32728	
1615	0	32708	
1616	0	32684	
1617	0	32636	
1618	0	32640	
1619	0	32676	
1620	0	32800	
1621	0	32828	
1622	0	32736	
1623	0	32884	
1624	0	32956	
1625	0	32876	
1626	0	32800	
1627	0	32776	
1628	0	32800	
1629	0	32838	
1630	0	32844	
1631	0	32816	
1632	0	32836	
1633	0	32792	
1634	0	32712	
1635	0	32672	
1636	0	32652	
1637	0	32692	
1638	0	32628	
1639	0	32676	
1640	0	32777	
1641	0	32800	
1642	0	32776	
1643	0	32844	
1644	0	32808	
1645	0	32773	
1646	0	32777	
1647	0	32844	
1648	0	32911	
1649	0	32911	
1650	0	32861	
1651	0	32916	
1652	0	32780	
1653	0	32616	
1654	0	32692	
1655	0	32740	
1656	0	32764	
1657	0	32668	
1658	0	32584	
1659	0	32648	
1660	0	32800	
1661	0	32788	
1662	0	32800	
1663	0	32950	
1664	0	32862	
1665	0	32781	
1666	0	32844	
1667	0	32868	
1668	0	32852	
1669	0	32808	
1670	0	32863	
1671	0	32800	
1672	0	32764	
1673	0	32748	
1674	0	32660	
1675	0	32704	
1676	0	32708	
1677	0	32628	
1678	0	32660	
1679	0	32718	
1680	0	32844	
1681	0	32756	
1682	0	32708	
1683	0	32948	
1684	0	33016	
1685	0	32892	
1686	0	32744	
1687	0	32756	
1688	0	32732	
1689	0	32796	
1690	0	32877	
1691	0	32812	
1692	0	32801	
1693	0	32776	
1694	0	32752	
1695	0	32704	
1696	0	32708	
1697	0	32616	
1698	0	32636	
1699	0	32692	
1700	0	32712	
1701	0	32760	
1702	0	32796	
1703	0	32832	
1704	0	32872	
1705	0	32780	
1706	0	32812	
1707	0	32856	
1708	0	32801	
1709	0	32860	
1710	0	32762	
1711	0	32928	
1712	0	32816	
1713	0	32764	
1714	0	32748	
1715	0	32808	
1716	0	32854	
1717	0	32717	
1718	0	32629	
1719	0	32644	
1720	0	32720	
1721	0	32760	
1722	0	32800	
1723	0	32820	
1724	0	32900	
1725	0	32912	
1726	0	32900	
1727	0	32904	
1728	0	32876	
1729	0	32860	
1730	0	32848	
1731	0	32856	
1732	0	32882	
1733	0	32756	
1734	0	32720	
1735	0	32680	
1736	0	32644	
1737	0	32585	
1738	0	32604	
1739	0	32636	
1740	0	32664	
1741	0	32732	
1742	0	32776	
1743	0	32832	
1744	0	32872	
1745	0	32896	
1746	0	32882	
1747	0	32852	
1748	0	32956	
1749	0	32856	
1750	0	32817	
1751	0	32768	
1752	0	32820	
1753	0	32696	
1754	0	32648	
1755	0	32664	
1756	0	32700	
1757	0	32581	
1758	0	32604	
1759	0	32657	
1760	0	32696	
1761	0	32832	
1762	0	32868	
1763	0	32832	
1764	0	32844	
1765	0	32848	
1766	0	32836	
1767	0	32902	
1768	0	32869	
1769	0	32836	
1770	0	32842	
1771	0	32902	
1772	0	32860	
1773	0	32696	
1774	0	32548	
1775	0	32640	
1776	0	32756	
1777	0	32752	
1778	0	32604	
1779	0	32732	
1780	0	32692	
1781	0	32833	
1782	0	32856	
1783	0	32852	
1784	0	32812	
1785	0	32832	
1786	0	32785	
1787	0	32864	
1788	0	32812	
1789	0	32796	
1790	0	32824	
1791	0	32880	
1792	0	32924	
1793	0	32796	
1794	0	32708	
1795	0	32796	
1796	0	32740	
1797	0	32600	
1798	0	32569	
1799	0	32625	
1800	0	32652	
1801	0	32812	
1802	0	32984	
1803	0	32902	
1804	0	32832	
1805	0	32728	
1806	0	32800	
1807	0	32836	
1808	0	32728	
1809	0	32810	
1810	0	32864	
1811	0	32812	
1812	0	32824	
1813	0	32824	
1814	0	32672	
1815	0	32704	
1816	0	32708	
1817	0	32647	
1818	0	32684	
1819	0	32760	
1820	0	32720	
1821	0	32788	
1822	0	32864	
1823	0	32968	
1824	0	32849	
1825	0	32772	
1826	0	32776	
1827	0	32804	
1828	0	32820	
1829	0	32868	
1830	0	32864	
1831	0	32820	
1832	0	32792	
1833	0	32724	
1834	0	32678	
1835	0	32848	
1836	0	32700	
1837	0	32692	
1838	0	32677	
1839	0	32644	
1840	0	32604	
1841	0	32696	
1842	0	32834	
1843	0	32924	
1844	0	32968	
1845	0	32805	
1846	0	32804	
1847	0	32864	
1848	0	32792	
1849	0	32892	
1850	0	32912	
1851	0	32840	
1852	0	32806	
1853	0	32692	
1854	0	32660	
1855	0	32680	
1856	0	32768	
1857	0	32693	
1858	0	32644	
1859	0	32652	
1860	0	32740	
1861	0	32766	
1862	0	32812	
1863	0	32920	
1864	0	32772	
1865	0	32828	
1866	0	32840	
1867	0	32820	
1868	0	32934	
1869	0	32924	
1870	0	32824	
1871	0	32782	
1872	0	32778	
1873	0	32724	
1874	0	32725	
1875	0	32776	
1876	0	32736	
1877	0	32664	
1878	0	32656	
1879	0	32608	
1880	0	32684	
1881	0	32876	
1882	0	32816	
1883	0	32840	
1884	0	32960	
1885	0	32885	
1886	0	32788	
1887	0	32760	
1888	0	32712	
1889	0	32752	
1890	0	32888	
1891	0	32880	
1892	0	32841	
1893	0	32774	
1894	0	32720	
1895	0	32700	
1896	0	32624	
1897	0	32672	
1898	0	32612	
1899	0	32684	
1900	0	32764	
1901	0	32836	
1902	0	32812	
1903	0	32836	
1904	0	32920	
1905	0	32848	
1906	0	32902	
1907	0	32860	
1908	0	32900	
1909	0	32888	
1910	0	32892	
1911	0	32796	
1912	0	32792	
1913	0	32768	
1914	0	32656	
1915	0	32660	
1916	0	32656	
1917	0	32652	
1918	0	32604	
1919	0	32565	
1920	0	32748	
1921	0	32836	
1922	0	32928	
1923	0	32857	
1924	0	32909	
1925	0	32893	
1926	0	32804	
1927	0	32704	
1928	0	32893	
1929	0	32852	
1930	0	32932	
1931	0	32892	
1932	0	32864	
1933	0	32812	
1934	0	32644	
1935	0	32664	
1936	0	32708	
1937	0	32672	
1938	0	32612	
1939	0	32631	
1940	0	32672	
1941	0	32788	
1942	0	32740	
1943	0	32959	
1944	0	33020	
1945	0	32892	
1946	0	32828	
1947	0	32712	
1948	0	32652	
1949	0	32821	
1950	0	32856	
1951	0	32932	
1952	0	32904	
1953	0	32942	
1954	0	32740	
1955	0	32592	
1956	0	32532	
1957	0	32476	
1958	0	32628	
1959	0	32688	
1960	0	32758	
1961	0	32740	
1962	0	32776	
1963	0	32880	
1964	0	32892	
1965	0	32903	
1966	0	32844	
1967	0	32888	
1968	0	32944	
1969	0	32850	
1970	0	32808	
1971	0	32784	
1972	0	32764	
1973	0	32736	
1974	0	32636	
1975	0	32724	
1976	0	32702	
1977	0	32740	
1978	0	32696	
1979	0	32670	
1980	0	32636	
1981	0	32764	
1982	0	32868	
1983	0	32876	
1984	0	32856	
1985	0	32916	
1986	0	32904	
1987	0	32812	
1988	0	32846	
1989	0	32840	
1990	0	32801	
1991	0	32784	
1992	0	32788	
1993	0	32788	
1994	0	32744	
1995	0	32741	
1996	0	32772	
1997	0	32700	
1998	0	32646	
1999	0	32636	
2000	0	32724	
2001	0	32846	
2002	0	32812	
2003	0	32860	
2004	0	32817	
2005	0	32828	
2006	0	32740	
2007	0	32780	
2008	0	32814	
2009	0	32840	
2010	0	32877	
2011	0	32900	
2012	0	32845	
2013	0	32780	
2014	0	32681	
2015	0	32620	
2016	0	32680	
2017	0	32750	
2018	0	32648	
2019	0	32696	
2020	0	32760	
2021	0	32737	
2022	0	32826	
2023	0	32800	
2024	0	32868	
2025	0	32916	
2026	0	32932	
2027	0	32949	
2028	0	32913	
2029	0	32820	
2030	0	32660	
2031	0	32768	
2032	0	32700	
2033	0	32696	
2034	0	32684	
2035	0	32788	
2036	0	32732	
2037	0	32676	
2038	0	32580	
2039	0	32640	
2040	0	32709	
2041	0	32802	
2042	0	32848	
2043	0	32864	
2044	0	32852	
2045	0	32872	
2046	0	32856	
2047	0	32832	
2048	0	32820	
2049	0	32868	
2050	0	32877	
2051	0	32912	
2052	0	32848	
2053	0	32772	
2054	0	32660	
2055	0	32648	
2056	0	32636	
2057	0	32692	
2058	0	32632	
2059	0	32680	
2060	0	32760	
2061	0	32832	
2062	0	32832	
2063	0	32884	
2064	0	32952	
2065	0	32880	
2066	0	32756	
2067	0	32725	
2068	0	32820	
2069	0	32844	
2070	0	32844	
2071	0	32836	
2072	0	32868	
2073	0	32774	
2074	0	32653	
2075	0	32688	
2076	0	32761	
2077	0	32688	
2078	0	32580	
2079	0	32688	
2080	0	32738	
2081	0	32796	
2082	0	32865	
2083	0	32864	
2084	0	32864	
2085	0	32862	
2086	0	32868	
2087	0	32816	
2088	0	32808	
2089	0	32836	
2090	0	32908	
2091	0	32844	
2092	0	32848	
2093	0	32728	
2094	0	32684	
2095	0	32623	
2096	0	32670	
2097	0	32726	
2098	0	32660	
2099	0	32700	
2100	0	32701	
2101	0	32808	
2102	0	32776	
2103	0	32880	
2104	0	32829	
2105	0	32852	
2106	0	32876	
2107	0	32860	
2108	0	32796	
2109	0	32784	
2110	0	32900	
2111	0	32839	
2112	0	32748	
2113	0	32668	
2114	0	32700	
2115	0	32737	
2116	0	32772	
2117	0	32704	
2118	0	32684	
2119	0	32772	
2120	0	32752	
2121	0	32824	
2122	0	32836	
2123	0	32780	
2124	0	32800	
2125	0	32836	
2126	0	32857	
2127	0	32820	
2128	0	32877	
2129	0	32868	
2130	0	32908	
2131	0	32853	
2132	0	32833	
2133	0	32797	
2134	0	32692	
2135	0	32701	
2136	0	32724	
2137	0	32656	
2138	0	32608	
2139	0	32668	
2140	0	32758	
2141	0	32798	
2142	0	32804	
2143	0	32880	
2144	0	32856	
2145	0	32860	
2146	0	32844	
2147	0	32880	
2148	0	32829	
2149	0	32868	
2150	0	32913	
2151	0	32844	
2152	0	32809	
2153	0	32672	
2154	0	32692	
2155	0	32724	
2156	0	32732	
2157	0	32660	
2158	0	32612	
2159	0	32680	
2160	0	32708	
2161	0	32804	
2162	0	32788	
2163	0	32869	
2164	0	32870	
2165	0	32868	
2166	0	32790	
2167	0	32724	
2168	0	32852	
2169	0	32892	
2170	0	32775	
2171	0	32860	
2172	0	32784	
2173	0	32836	
2174	0	32745	
2175	0	32732	
2176	0	32668	
2177	0	32657	
2178	0	32564	
2179	0	32628	
2180	0	32756	
2181	0	32848	
2182	0	32910	
2183	0	32970	
2184	0	32800	
2185	0	32864	
2186	0	32792	
2187	0	32813	
2188	0	32844	
2189	0	32805	
2190	0	32815	
2191	0	32837	
2192	0	32828	
2193	0	32792	
2194	0	32625	
2195	0	32629	
2196	0	32692	
2197	0	32696	
2198	0	32712	
2199	0	32750	
2200	0	32704	
2201	0	32796	
2202	0	32800	
2203	0	32848	
2204	0	32872	
2205	0	32816	
2206	0	32802	
2207	0	32784	
2208	0	32880	
2209	0	32905	
2210	0	32896	
2211	0	32772	
2212	0	32904	
2213	0	32812	
2214	0	32686	
2215	0	32616	
2216	0	32684	
2217	0	32608	
2218	0	32649	
2219	0	32696	
2220	0	32692	
2221	0	32808	
2222	0	32852	
2223	0	32880	
2224	0	32804	
2225	0	32824	
2226	0	32860	
2227	0	32830	
2228	0	32844	
2229	0	32836	
2230	0	32812	
2231	0	32888	
2232	0	32860	
2233	0	32804	
2234	0	32744	
2235	0	32660	
2236	0	32709	
2237	0	32680	
2238	0	32549	
2239	0	32728	
2240	0	32724	
2241	0	32828	
2242	0	32860	
2243	0	33036	
2244	0	32896	
2245	0	32896	
2246	0	32752	
2247	0	32764	
2248	0	32869	
2249	0	32864	
2250	0	32844	
2251	0	32946	
2252	0	32905	
2253	0	32704	
2254	0	32696	
2255	0	32548	
2256	0	32612	
2257	0	32672	
2258	0	32640	
2259	0	32652	
2260	0	32692	
2261	0	32724	
2262	0	32822	
2263	0	32876	
2264	0	32797	
2265	0	32764	
2266	0	32848	
2267	0	32908	
2268	0	32816	
2269	0	32800	
2270	0	32836	
2271	0	32820	
2272	0	32860	
2273	0	32900	
2274	0	32772	
2275	0	32676	
2276	0	32708	
2277	0	32664	
2278	0	32692	
2279	0	32660	
2280	0	32732	
2281	0	32800	
2282	0	32796	
2283	0	32784	
2284	0	32796	
2285	0	32820	
2286	0	32740	
2287	0	32860	
2288	0	32828	
2289	0	32944	
2290	0	32872	
2291	0	32880	
2292	0	32856	
2293	0	32704	
2294	0	32684	
2295	0	32684	
2296	0	32709	
2297	0	32612	
2298	0	32588	
2299	0	32621	
2300	0	32752	
2301	0	32860	
2302	0	32941	
2303	0	32968	
2304	0	32909	
2305	0	32780	
2306	0	32748	
2307	0	32800	
2308	0	32848	
2309	0	32832	
2310	0	32805	
2311	0	32892	
2312	0	32864	
2313	0	32784	
2314	0	32700	
2315	0	32752	
2316	0	32669	
2317	0	32628	
2318	0	32568	
2319	0	32568	
2320	0	32669	
2321	0	32728	
2322	0	32817	
2323	0	32932	
2324	0	32780	
2325	0	32824	
2326	0	32720	
2327	0	32766	
2328	0	32804	
2329	0	32878	
2330	0	32838	
2331	0	32896	
2332	0	32840	
2333	0	32714	
2334	0	32660	
2335	0	32688	
2336	0	32830	
2337	0	32820	
2338	0	32792	
2339	0	32712	
2340	0	32686	
2341	0	32860	
2342	0	32924	
2343	0	32844	
2344	0	32882	
2345	0	32844	
2346	0	32860	
2347	0	32840	
2348	0	32877	
2349	0	32836	
2350	0	32824	
2351	0	32916	
2352	0	32904	
2353	0	32828	
2354	0	32608	
2355	0	32672	
2356	0	32724	
2357	0	32624	
2358	0	32570	
2359	0	32724	
2360	0	32748	
2361	0	32876	
2362	0	32756	
2363	0	32804	
2364	0	32849	
2365	0	32884	
2366	0	32829	
2367	0	32840	
2368	0	32772	
2369	0	32780	
2370	0	32824	
2371	0	32840	
2372	0	32860	
2373	0	32709	
2374	0	32676	
2375	0	32681	
2376	0	32672	
2377	0	32620	
2378	0	32644	
2379	0	32736	
2380	0	32712	
2381	0	32788	
2382	0	32889	
2383	0	32850	
2384	0	32877	
2385	0	32801	
2386	0	32708	
2387	0	32841	
2388	0	32844	
2389	0	32882	
2390	0	32936	
2391	0	32908	
2392	0	32849	
2393	0	32652	
2394	0	32628	
2395	0	32744	
2396	0	32664	
2397	0	32684	
2398	0	32636	
2399	0	32660	
2400	0	32684	
2401	0	32736	
2402	0	32766	
2403	0	32904	
2404	0	32900	
2405	0	32896	
2406	0	32796	
2407	0	32820	
2408	0	32816	
2409	0	32854	
2410	0	32828	
2411	0	32980	
2412	0	32870	
2413	0	32750	
2414	0	32748	
2415	0	32764	
2416	0	32656	
2417	0	32592	
2418	0	32560	
2419	0	32588	
2420	0	32700	
2421	0	32801	
2422	0	32864	
2423	0	32938	
2424	0	32876	
2425	0	32832	
2426	0	32836	
2427	0	32804	
2428	0	32904	
2429	0	32924	
2430	0	32934	
2431	0	32882	
2432	0	32852	
2433	0	32672	
2434	0	32652	
2435	0	32668	
2436	0	32737	
2437	0	32656	
2438	0	32596	
2439	0	32676	
2440	0	32720	
2441	0	32864	
2442	0	32884	
2443	0	32812	
2444	0	32824	
2445	0	32790	
2446	0	32901	
2447	0	32816	
2448	0	32792	
2449	0	32860	
2450	0	32896	
2451	0	32884	
2452	0	32876	
2453	0	32760	
2454	0	32686	
2455	0	32688	
2456	0	32684	
2457	0	32688	
2458	0	32584	
2459	0	32624	
2460	0	32780	
2461	0	32864	
2462	0	32790	
2463	0	32852	
2464	0	32832	
2465	0	32876	
2466	0	32824	
2467	0	32872	
2468	0	32886	
2469	0	32940	
2470	0	32824	
2471	0	32876	
2472	0	32855	
2473	0	32805	
2474	0	32692	
2475	0	32644	
2476	0	32704	
2477	0	32612	
2478	0	32644	
2479	0	32732	
2480	0	32700	
2481	0	32816	
2482	0	32772	
2483	0	32800	
2484	0	32784	
2485	0	32880	
2486	0	32896	
2487	0	32884	
2488	0	32912	
2489	0	32836	
2490	0	32852	
2491	0	32872	
2492	0	32954	
2493	0	32788	
2494	0	32696	
2495	0	32696	
2496	0	32576	
2497	0	32604	
2498	0	32616	
2499	0	32652	
2500	0	32704	
2501	0	32846	
2502	0	32900	
2503	0	32820	
2504	0	32788	
2505	0	32728	
2506	0	32736	
2507	0	32852	
2508	0	32916	
2509	0	32848	
2510	0	32780	
2511	0	32836	
2512	0	32852	
2513	0	32920	
2514	0	32792	
2515	0	32656	
2516	0	32552	
2517	0	32644	
2518	0	32672	
2519	0	32652	
2520	0	32732	
2521	0	32878	
2522	0	32818	
2523	0	32845	
2524	0	32772	
2525	0	32868	
2526	0	32845	
2527	0	32792	
2528	0	32884	
2529	0	32852	
2530	0	32828	
2531	0	32872	
2532	0	32820	
2533	0	32780	
2534	0	32676	
2535	0	32646	
2536	0	32694	
2537	0	32682	
2538	0	32612	
2539	0	32664	
2540	0	32789	
2541	0	32764	
2542	0	32788	
2543	0	32840	
2544	0	32900	
2545	0	32816	
2546	0	32824	
2547	0	32885	
2548	0	32900	
2549	0	32828	
2550	0	32804	
2551	0	32752	
2552	0	32788	
2553	0	32786	
2554	0	32748	
2555	0	32692	
2556	0	32661	
2557	0	32677	
2558	0	32676	
2559	0	32616	
2560	0	32740	
2561	0	32780	
2562	0	32760	
2563	0	32884	
2564	0	32820	
2565	0	32744	
2566	0	32796	
2567	0	32844	
2568	0	32852	
2569	0	32848	
2570	0	32760	
2571	0	32902	
2572	0	32856	
2573	0	32764	
2574	0	32740	
2575	0	32692	
2576	0	32680	
2577	0	32672	
2578	0	32653	
2579	0	32660	
2580	0	32772	
2581	0	32760	
2582	0	32764	
2583	0	32832	
2584	0	32764	
2585	0	32814	
2586	0	32869	
2587	0	32864	
2588	0	32808	
2589	0	32808	
2590	0	32820	
2591	0	32846	
2592	0	32925	
2593	0	32796	
2594	0	32672	
2595	0	32680	
2596	0	32684	
2597	0	32636	
2598	0	32616	
2599	0	32648	
2600	0	32768	
2601	0	32932	
2602	0	32894	
2603	0	32804	
2604	0	32836	
2605	0	32740	
2606	0	32864	
2607	0	32852	
2608	0	32893	
2609	0	32828	
2610	0	32776	
2611	0	32774	
2612	0	32812	
2613	0	32804	
2614	0	32854	
2615	0	32788	
2616	0	32724	
2617	0	32556	
2618	0	32497	
2619	0	32588	
2620	0	32724	
2621	0	32716	
2622	0	32848	
2623	0	32833	
2624	0	32828	
2625	0	32870	
2626	0	32840	
2627	0	32840	
2628	0	32876	
2629	0	32872	
2630	0	32925	
2631	0	32896	
2632	0	32836	
2633	0	32792	
2634	0	32660	
2635	0	32680	
2636	0	32736	
2637	0	32632	
2638	0	32576	
2639	0	32576	
2640	0	32688	
2641	0	32816	
2642	0	32804	
2643	0	33004	
2644	0	32897	
2645	0	32876	
2646	0	32902	
2647	0	32894	
2648	0	32788	
2649	0	32800	
2650	0	32816	
2651	0	32849	
2652	0	32840	
2653	0	32775	
2654	0	32692	
2655	0	32670	
2656	0	32636	
2657	0	32652	
2658	0	32644	
2659	0	32668	
2660	0	32696	
2661	0	32896	
2662	0	32872	
2663	0	32876	
2664	0	32840	
2665	0	32840	
2666	0	32775	
2667	0	32724	
2668	0	32728	
2669	0	32793	
2670	0	32852	
2671	0	32860	
2672	0	32912	
2673	0	32780	
2674	0	32696	
2675	0	32692	
2676	0	32716	
2677	0	32664	
2678	0	32660	
2679	0	32686	
2680	0	32752	
2681	0	32745	
2682	0	32860	
2683	0	32848	
2684	0	32853	
2685	0	32878	
2686	0	32888	
2687	0	32893	
2688	0	32864	
2689	0	32812	
2690	0	32924	
2691	0	32856	
2692	0	32789	
2693	0	32782	
2694	0	32648	
2695	0	32549	
2696	0	32673	
2697	0	32676	
2698	0	32648	
2699	0	32660	
2700	0	32712	
2701	0	32828	
2702	0	32764	
2703	0	32834	
2704	0	32862	
2705	0	32900	
2706	0	32869	
2707	0	32900	
2708	0	32816	
2709	0	32860	
2710	0	32804	
2711	0	32892	
2712	0	32904	
2713	0	32700	
2714	0	32685	
2715	0	32606	
2716	0	32556	
2717	0	32640	
2718	0	32708	
2719	0	32792	
2720	0	32724	
2721	0	32764	
2722	0	32764	
2723	0	32824	
2724	0	32869	
2725	0	32848	
2726	0	32780	
2727	0	32836	
2728	0	32836	
2729	0	32868	
2730	0	32908	
2731	0	32844	
2732	0	32984	
2733	0	32804	
2734	0	32656	
2735	0	32564	
2736	0	32684	
2737	0	32609	
2738	0	32612	
2739	0	32624	
2740	0	32656	
2741	0	32728	
2742	0	32784	
2743	0	32888	
2744	0	32956	
2745	0	32876	
2746	0	32824	
2747	0	32832	
2748	0	32825	
2749	0	32896	
2750	0	32872	
2751	0	32908	
2752	0	32812	
2753	0	32780	
2754	0	32717	
2755	0	32700	
2756	0	32668	
2757	0	32756	
2758	0	32672	
2759	0	32622	
2760	0	32736	
2761	0	32768	
2762	0	32876	
2763	0	32888	
2764	0	32856	
2765	0	32832	
2766	0	32860	
2767	0	32800	
2768	0	32848	
2769	0	32871	
2770	0	32750	
2771	0	32820	
2772	0	32852	
2773	0	32736	
2774	0	32728	
2775	0	32700	
2776	0	32738	
2777	0	32640	
2778	0	32663	
2779	0	32685	
2780	0	32757	
2781	0	32696	
2782	0	32860	
2783	0	32832	
2784	0	32877	
2785	0	32886	
2786	0	32768	
2787	0	32848	
2788	0	32836	
2789	0	32802	
2790	0	32790	
2791	0	32832	
2792	0	32856	
2793	0	32776	
2794	0	32668	
2795	0	32712	
2796	0	32684	
2797	0	32692	
2798	0	32714	
2799	0	32732	
2800	0	32692	
2801	0	32884	
2802	0	32904	
2803	0	32785	
2804	0	32708	
2805	0	32796	
2806	0	32796	
2807	0	32905	
2808	0	32860	
2809	0	32841	
2810	0	32813	
2811	0	32871	
2812	0	32856	
2813	0	32860	
2814	0	32764	
2815	0	32728	
2816	0	32660	
2817	0	32676	
2818	0	32628	
2819	0	32600	
2820	0	32692	
2821	0	32802	
2822	0	32848	
2823	0	32852	
2824	0	32800	
2825	0	32772	
2826	0	32804	
2827	0	32816	
2828	0	32824	
2829	0	32881	
2830	0	32852	
2831	0	33028	
2832	0	32936	
2833	0	32768	
2834	0	32664	
2835	0	32644	
2836	0	32732	
2837	0	32716	
2838	0	32696	
2839	0	32636	
2840	0	32640	
2841	0	32748	
2842	0	32876	
2843	0	33024	
2844	0	32932	
2845	0	32790	
2846	0	32812	
2847	0	32824	
2848	0	32820	
2849	0	32912	
2850	0	32828	
2851	0	32794	
2852	0	32705	
2853	0	32694	
2854	0	32732	
2855	0	32724	
2856	0	32704	
2857	0	32756	
2858	0	32620	
2859	0	32652	
2860	0	32740	
2861	0	32816	
2862	0	32817	
2863	0	32848	
2864	0	32848	
2865	0	32836	
2866	0	32884	
2867	0	32884	
2868	0	32808	
2869	0	32815	
2870	0	32676	
2871	0	32910	
2872	0	32840	
2873	0	32752	
2874	0	32649	
2875	0	32684	
2876	0	32730	
2877	0	32697	
2878	0	32664	
2879	0	32631	
2880	0	32668	
2881	0	32861	
2882	0	32876	
2883	0	32821	
2884	0	32884	
2885	0	32840	
2886	0	32834	
2887	0	32860	
2888	0	32844	
2889	0	32756	
2890	0	32744	
2891	0	32856	
2892	0	32897	
2893	0	32856	
2894	0	32800	
2895	0	32712	
2896	0	32636	
2897	0	32632	
2898	0	32520	
2899	0	32624	
2900	0	32684	
2901	0	32788	
2902	0	32856	
2903	0	32828	
2904	0	32916	
2905	0	32858	
2906	0	32868	
2907	0	32820	
2908	0	32808	
2909	0	32836	
2910	0	32812	
2911	0	32868	
2912	0	32884	
2913	0	32882	
2914	0	32749	
2915	0	32648	
2916	0	32696	
2917	0	32696	
2918	0	32640	
2919	0	32680	
2920	0	32636	
2921	0	32790	
2922	0	32898	
2923	0	32876	
2924	0	32780	
2925	0	32772	
2926	0	32708	
2927	0	32800	
2928	0	32900	
2929	0	32852	
2930	0	32848	
2931	0	32832	
2932	0	32828	
2933	0	32703	
2934	0	32756	
2935	0	32732	
2936	0	32664	
2937	0	32736	
2938	0	32748	
2939	0	32653	
2940	0	32744	
2941	0	32776	
2942	0	32833	
2943	0	32816	
2944	0	32900	
2945	0	32912	
2946	0	32900	
2947	0	32848	
2948	0	32848	
2949	0	32862	
2950	0	32780	
2951	0	32812	
2952	0	32808	
2953	0	32724	
2954	0	32676	
2955	0	32672	
2956	0	32644	
2957	0	32696	
2958	0	32564	
2959	0	32725	
2960	0	32680	
2961	0	32780	
2962	0	32828	
2963	0	32856	
2964	0	32984	
2965	0	32958	
2966	0	32780	
2967	0	32720	
2968	0	32809	
2969	0	32836	
2970	0	32756	
2971	0	32872	
2972	0	32814	
2973	0	32728	
2974	0	32740	
2975	0	32628	
2976	0	32648	
2977	0	32636	
2978	0	32628	
2979	0	32700	
2980	0	32785	
2981	0	32832	
2982	0	32884	
2983	0	32860	
2984	0	32981	
2985	0	32892	
2986	0	32804	
2987	0	32820	
2988	0	32878	
2989	0	32913	
2990	0	32868	
2991	0	32858	
2992	0	32836	
2993	0	32847	
2994	0	32716	
2995	0	32776	
2996	0	32740	
2997	0	32664	
2998	0	32629	
2999	0	32605	
3000	0	32700	
3001	0	32729	
3002	0	32869	
3003	0	32820	
3004	0	32932	
3005	0	32860	
3006	0	32717	
3007	0	32788	
3008	0	32733	
3009	0	32796	
3010	0	32836	
3011	0	32848	
3012	0	32816	
3013	0	32772	
3014	0	32716	
3015	0	32628	
3016	0	32774	
3017	0	32713	
3018	0	32612	
3019	0	32597	
3020	0	32724	
3021	0	32724	
3022	0	32778	
3023	0	32896	
3024	0	32872	
3025	0	32820	
3026	0	32836	
3027	0	32792	
3028	0	32820	
3029	0	32864	
3030	0	32836	
3031	0	32852	
3032	0	32796	
3033	0	32796	
3034	0	32728	
3035	0	32700	
3036	0	32736	
3037	0	32800	
3038	0	32664	
3039	0	32599	
3040	0	32629	
3041	0	32677	
3042	0	32773	
3043	0	32844	
3044	0	32902	
3045	0	32880	
3046	0	32924	
3047	0	32774	
3048	0	32820	
3049	0	32868	
3050	0	32850	
3051	0	32836	
3052	0	32836	
3053	0	32784	
3054	0	32736	
3055	0	32653	
3056	0	32737	
3057	0	32708	
3058	0	32648	
3059	0	32684	
3060	0	32656	
3061	0	32768	
3062	0	32893	
3063	0	32796	
3064	0	32872	
3065	0	32852	
3066	0	32921	
3067	0	32764	
3068	0	32888	
3069	0	32824	
3070	0	32864	
3071	0	32824	
3072	0	32832	
3073	0	32784	
3074	0	32728	
3075	0	32688	
3076	0	32760	
3077	0	32752	
3078	0	32620	
3079	0	32620	
3080	0	32718	
3081	0	32774	
3082	0	32832	
3083	0	32804	
3084	0	32860	
3085	0	32800	
3086	0	32804	
3087	0	32800	
3088	0	32748	
3089	0	32920	
3090	0	32854	
3091	0	32876	
3092	0	32816	
3093	0	32741	
3094	0	32704	
3095	0	32648	
3096	0	32668	
3097	0	32708	
3098	0	32688	
3099	0	32716	
3100	0	32792	
3101	0	32936	
3102	0	32836	
3103	0	32828	
3104	0	32720	
3105	0	32796	
3106	0	32880	
3107	0	32884	
3108	0	32778	
3109	0	32828	
3110	0	32836	
3111	0	32836	
3112	0	32868	
3113	0	32824	
3114	0	32728	
3115	0	32664	
3116	0	32680	
3117	0	32704	
3118	0	32608	
3119	0	32616	
3120	0	32676	
3121	0	32824	
3122	0	32860	
3123	0	32848	
3124	0	32760	
3125	0	32764	
3126	0	32780	
3127	0	32844	
3128	0	32864	
3129	0	32922	
3130	0	32924	
3131	0	32896	
3132	0	32796	
3133	0	32760	
3134	0	32724	
3135	0	32696	
3136	0	32712	
3137	0	32648	
3138	0	32652	
3139	0	32552	
3140	0	32708	
3141	0	32800	
3142	0	32836	
3143	0	32892	
3144	0	32852	
3145	0	32932	
3146	0	32856	
3147	0	32804	
3148	0	32888	
3149	0	32888	
3150	0	32745	
3151	0	32888	
3152	0	32848	
3153	0	32792	
3154	0	32692	
3155	0	32748	
3156	0	32720	
3157	0	32680	
3158	0	32700	
3159	0	32636	
3160	0	32660	
3161	0	32676	
3162	0	32796	
3163	0	32880	
3164	0	32877	
3165	0	32825	
3166	0	32814	
3167	0	32725	
3168	0	32800	
3169	0	32880	
3170	0	32916	
3171	0	32852	
3172	0	32834	
3173	0	32720	
3174	0	32720	
3175	0	32744	
3176	0	32729	
3177	0	32672	
3178	0	32668	
3179	0	32692	
3180	0	32668	
3181	0	32640	
3182	0	32800	
3183	0	32836	
3184	0	32900	
3185	0	32892	
3186	0	32804	
3187	0	32821	
3188	0	32804	
3189	0	32828	
3190	0	32796	
3191	0	32848	
3192	0	32780	
3193	0	32757	
3194	0	32768	
3195	0	32660	
3196	0	32800	
3197	0	32792	
3198	0	32652	
3199	0	32640	
3200	0	32624	
3201	0	32644	
3202	0	32820	
3203	0	32804	
3204	0	32832	
3205	0	32832	
3206	0	32845	
3207	0	32836	
3208	0	32852	
3209	0	32844	
3210	0	32768	
3211	0	32912	
3212	0	32952	
3213	0	32848	
3214	0	32732	
3215	0	32672	
3216	0	32640	
3217	0	32732	
3218	0	32624	
3219	0	32612	
3220	0	32704	
3221	0	32736	
3222	0	32738	
3223	0	32840	
3224	0	32900	
3225	0	32860	
3226	0	32884	
3227	0	32880	
3228	0	32932	
3229	0	32831	
3230	0	32776	
3231	0	32808	
3232	0	32789	
3233	0	32837	
3234	0	32757	
3235	0	32716	
3236	0	32718	
3237	0	32788	
3238	0	32613	
3239	0	32520	
3240	0	32620	
3241	0	32684	
3242	0	32865	
3243	0	32832	
3244	0	32868	
3245	0	32912	
3246	0	32824	
3247	0	32852	
3248	0	32901	
3249	0	32884	
3250	0	32825	
3251	0	32864	
3252	0	32840	
3253	0	32878	
3254	0	32764	
3255	0	32700	
3256	0	32704	
3257	0	32676	
3258	0	32648	
3259	0	32646	
3260	0	32704	
3261	0	32762	
3262	0	32812	
3263	0	32808	
3264	0	32832	
3265	0	32794	
3266	0	32804	
3267	0	32917	
3268	0	32864	
3269	0	32812	
3270	0	32852	
3271	0	32860	
3272	0	32848	
3273	0	32829	
3274	0	32768	
3275	0	32698	
3276	0	32692	
3277	0	32624	
3278	0	32680	
3279	0	32632	
3280	0	32680	
3281	0	32676	
3282	0	32900	
3283	0	32928	
3284	0	32829	
3285	0	32876	
3286	0	32772	
3287	0	32757	
3288	0	32756	
3289	0	32864	
3290	0	32956	
3291	0	32872	
3292	0	32824	
3293	0	32816	
3294	0	32716	
3295	0	32764	
3296	0	32748	
3297	0	32680	
3298	0	32752	
3299	0	32597	
3300	0	32640	
3301	0	32828	
3302	0	32833	
3303	0	32793	
3304	0	32916	
3305	0	32796	
3306	0	32788	
3307	0	32860	
3308	0	32792	
3309	0	32852	
3310	0	32824	
3311	0	32940	
3312	0	32916	
3313	0	32873	
3314	0	32732	
3315	0	32512	
3316	0	32572	
3317	0	32693	
3318	0	32660	
3319	0	32604	
3320	0	32661	
3321	0	32808	
3322	0	32972	
3323	0	32916	
3324	0	32760	
3325	0	32736	
3326	0	32772	
3327	0	32813	
3328	0	32860	
3329	0	32792	
3330	0	32832	
3331	0	32812	
3332	0	32848	
3333	0	32784	
3334	0	32760	
3335	0	32680	
3336	0	32736	
3337	0	32756	
3338	0	32668	
3339	0	32689	
3340	0	32712	
3341	0	32728	
3342	0	32790	
3343	0	32788	
3344	0	32924	
3345	0	32916	
3346	0	32765	
3347	0	32756	
3348	0	32852	
3349	0	32828	
3350	0	32832	
3351	0	32776	
3352	0	32890	
3353	0	32888	
3354	0	32788	
3355	0	32736	
3356	0	32696	
3357	0	32653	
3358	0	32676	
3359	0	32608	
3360	0	32700	
3361	0	32684	
3362	0	32800	
3363	0	32808	
3364	0	32924	
3365	0	32932	
3366	0	32948	
3367	0	32948	
3368	0	32782	
3369	0	32780	
3370	0	32668	
3371	0	32768	
3372	0	32900	
3373	0	32756	
3374	0	32784	
3375	0	32766	
3376	0	32748	
3377	0	32657	
3378	0	32725	
3379	0	32604	
3380	0	32660	
3381	0	32656	
3382	0	32734	
3383	0	32788	
3384	0	32864	
3385	0	32864	
3386	0	32868	
3387	0	32884	
3388	0	32836	
3389	0	32860	
3390	0	32820	
3391	0	32844	
3392	0	32864	
3393	0	32824	
3394	0	32758	
3395	0	32736	
3396	0	32776	
3397	0	32684	
3398	0	32640	
3399	0	32680	
3400	0	32748	
3401	0	32804	
3402	0	32820	
3403	0	32826	
3404	0	32788	
3405	0	32832	
3406	0	32833	
3407	0	32748	
3408	0	32824	
3409	0	32880	
3410	0	32832	
3411	0	32816	
3412	0	32840	
3413	0	32760	
3414	0	32696	
3415	0	32744	
3416	0	32740	
3417	0	32704	
3418	0	32716	
3419	0	32696	
3420	0	32716	
3421	0	32720	
3422	0	32824	
3423	0	32884	
3424	0	32807	
3425	0	32784	
3426	0	32756	
3427	0	32836	
3428	0	32912	
3429	0	32904	
3430	0	32910	
3431	0	32892	
3432	0	32788	
3433	0	32805	
3434	0	32774	
3435	0	32624	
3436	0	32716	
3437	0	32724	
3438	0	32638	
3439	0	32604	
3440	0	32672	
3441	0	32724	
3442	0	32816	
3443	0	32828	
3444	0	32860	
3445	0	32936	
3446	0	32804	
3447	0	32840	
3448	0	32876	
3449	0	32836	
3450	0	32826	
3451	0	32829	
3452	0	32884	
3453	0	32872	
3454	0	32940	
3455	0	32768	
3456	0	32600	
3457	0	32584	
3458	0	32556	
3459	0	32648	
3460	0	32657	
3461	0	32668	
3462	0	32800	
3463	0	32820	
3464	0	32845	
3465	0	32876	
3466	0	32820	
3467	0	32836	
3468	0	32956	
3469	0	32869	
3470	0	32836	
3471	0	32877	
3472	0	32928	
3473	0	32812	
3474	0	32749	
3475	0	32581	
3476	0	32624	
3477	0	32654	
3478	0	32712	
3479	0	32698	
3480	0	32680	
3481	0	32698	
3482	0	32776	
3483	0	32836	
3484	0	32836	
3485	0	32876	
3486	0	32845	
3487	0	32847	
3488	0	32857	
3489	0	32960	
3490	0	32848	
3491	0	32812	
3492	0	32816	
3493	0	32824	
3494	0	32829	
3495	0	32704	
3496	0	32736	
3497	0	32748	
3498	0	32736	
3499	0	32668	
3500	0	32612	
3501	0	32684	
3502	0	32804	
3503	0	32757	
3504	0	32814	
3505	0	32812	
3506	0	32852	
3507	0	32792	
3508	0	32836	
3509	0	32932	
3510	0	32824	
3511	0	32830	
3512	0	32929	
3513	0	32800	
3514	0	32761	
3515	0	32742	
3516	0	32752	
3517	0	32693	
3518	0	32610	
3519	0	32596	
3520	0	32692	
3521	0	32724	
3522	0	32877	
3523	0	32821	
3524	0	32840	
3525	0	32864	
3526	0	32864	
3527	0	32820	
3528	0	32869	
3529	0	32852	
3530	0	32812	
3531	0	32804	
3532	0	32889	
3533	0	32832	
3534	0	32712	
3535	0	32724	
3536	0	32660	
3537	0	32701	
3538	0	32629	
3539	0	32648	
3540	0	32664	
3541	0	32820	
3542	0	32772	
3543	0	32844	
3544	0	32725	
3545	0	32813	
3546	0	32844	
3547	0	32852	
3548	0	32824	
3549	0	32772	
3550	0	32784	
3551	0	32868	
3552	0	32964	
3553	0	32874	
3554	0	32750	
3555	0	32692	
3556	0	32772	
3557	0	32697	
3558	0	32572	
3559	0	32612	
3560	0	32668	
3561	0	32720	
3562	0	32812	
3563	0	32760	
3564	0	32824	
3565	0	32856	
3566	0	32826	
3567	0	32800	
3568	0	32844	
3569	0	32936	
3570	0	32968	
3571	0	32800	
3572	0	32820	
3573	0	32884	
3574	0	32728	
3575	0	32668	
3576	0	32713	
3577	0	32716	
3578	0	32592	
3579	0	32641	
3580	0	32685	
3581	0	32728	
3582	0	32852	
3583	0	32857	
3584	0	32788	
3585	0	32832	
3586	0	32673	
3587	0	32728	
3588	0	32860	
3589	0	32876	
3590	0	32928	
3591	0	32929	
3592	0	32932	
3593	0	32840	
3594	0	32760	
3595	0	32704	
3596	0	32605	
3597	0	32700	
3598	0	32696	
3599	0	32620	
3600	0	32720	
3601	0	32712	
3602	0	32820	
3603	0	32828	
3604	0	32856	
3605	0	32884	
3606	0	32828	
3607	0	32877	
3608	0	32816	
3609	0	32884	
3610	0	32812	
3611	0	32841	
3612	0	32916	
3613	0	32792	
3614	0	32712	
3615	0	32660	
3616	0	32676	
3617	0	32692	
3618	0	32592	
3619	0	32580	
3620	0	32620	
3621	0	32702	
3622	0	32817	
3623	0	32804	
3624	0	32860	
3625	0	32808	
3626	0	32861	
3627	0	32712	
3628	0	32856	
3629	0	32889	
3630	0	32900	
3631	0	32800	
3632	0	32960	
3633	0	32916	
3634	0	32740	
3635	0	32628	
3636	0	32608	
3637	0	32756	
3638	0	32701	
3639	0	32698	
3640	0	32728	
3641	0	32775	
3642	0	32892	
3643	0	32837	
3644	0	32814	
3645	0	32824	
3646	0	32864	
3647	0	32872	
3648	0	32968	
3649	0	32912	
3650	0	32937	
3651	0	32788	
3652	0	32781	
3653	0	32832	
3654	0	32732	
3655	0	32772	
3656	0	32640	
3657	0	32670	
3658	0	32652	
3659	0	32652	
3660	0	32692	
3661	0	32752	
3662	0	32748	
3663	0	32796	
3664	0	32868	
3665	0	32820	
3666	0	32828	
3667	0	32768	
3668	0	32848	
3669	0	32948	
3670	0	32900	
3671	0	32752	
3672	0	32788	
3673	0	32812	
3674	0	32765	
3675	0	32782	
3676	0	32784	
3677	0	32750	
3678	0	32560	
3679	0	32580	
3680	0	32644	
3681	0	32740	
3682	0	32804	
3683	0	32824	
3684	0	32820	
3685	0	32846	
3686	0	32900	
3687	0	32816	
3688	0	32756	
3689	0	32830	
3690	0	32824	
3691	0	32892	
3692	0	32885	
3693	0	32868	
3694	0	32812	
3695	0	32760	
3696	0	32772	
3697	0	32736	
3698	0	32640	
3699	0	32644	
3700	0	32656	
3701	0	32648	
3702	0	32748	
3703	0	32790	
3704	0	32860	
3705	0	32848	
3706	0	32839	
3707	0	32826	
3708	0	32824	
3709	0	32840	
3710	0	32856	
3711	0	32834	
3712	0	32900	
3713	0	32840	
3714	0	32716	
3715	0	32673	
3716	0	32648	
3717	0	32686	
3718	0	32716	
3719	0	32620	
3720	0	32646	
3721	0	32704	
3722	0	32802	
3723	0	32826	
3724	0	32749	
3725	0	32964	
3726	0	32964	
3727	0	32832	
3728	0	32856	
3729	0	32786	
3730	0	32734	
3731	0	32766	
3732	0	32848	
3733	0	32880	
3734	0	32762	
3735	0	32768	
3736	0	32757	
3737	0	32644	
3738	0	32660	
3739	0	32646	
3740	0	32625	
3741	0	32676	
3742	0	32804	
3743	0	32824	
3744	0	32860	
3745	0	32748	
3746	0	32840	
3747	0	32848	
3748	0	32844	
3749	0	32836	
3750	0	32772	
3751	0	32828	
3752	0	32748	
3753	0	32844	
3754	0	32836	
3755	0	32744	
3756	0	32700	
3757	0	32760	
3758	0	32742	
3759	0	32740	
3760	0	32744	
3761	0	32646	
3762	0	32789	
3763	0	32744	
3764	0	32802	
3765	0	32888	
3766	0	32860	
3767	0	32808	
3768	0	32872	
3769	0	32832	
3770	0	32824	
3771	0	32772	
3772	0	32764	
3773	0	32868	
3774	0	32764	
3775	0	32692	
3776	0	32636	
3777	0	32712	
3778	0	32721	
3779	0	32696	
3780	0	32760	
3781	0	32728	
3782	0	32720	
3783	0	32744	
3784	0	32796	
3785	0	32836	
3786	0	32869	
3787	0	32900	
3788	0	32934	
3789	0	32890	
3790	0	32894	
3791	0	32796	
3792	0	32876	
3793	0	32820	
3794	0	32740	
3795	0	32676	
3796	0	32692	
3797	0	32636	
3798	0	32720	
3799	0	32630	
3800	0	32596	
3801	0	32664	
3802	0	32760	
3803	0	32800	
3804	0	32884	
3805	0	32908	
3806	0	32853	
3807	0	32844	
3808	0	32824	
3809	0	32840	
3810	0	32796	
3811	0	32773	
3812	0	32800	
3813	0	32892	
3814	0	32857	
3815	0	32824	
3816	0	32868	
3817	0	32742	
3818	0	32676	
3819	0	32660	
3820	0	32556	
3821	0	32644	
3822	0	32700	
3823	0	32772	
3824	0	32840	
3825	0	32956	
3826	0	32909	
3827	0	32856	
3828	0	32736	
3829	0	32804	
3830	0	32892	
3831	0	32809	
3832	0	32878	
3833	0	32812	
3834	0	32820	
3835	0	32708	
3836	0	32717	
3837	0	32624	
3838	0	32660	
3839	0	32697	
3840	0	32740	
3841	0	32812	
3842	0	32744	
3843	0	32872	
3844	0	32828	
3845	0	32796	
3846	0	32792	
3847	0	32829	
3848	0	32784	
3849	0	32888	
3850	0	32892	
3851	0	32840	
3852	0	32804	
3853	0	32894	
3854	0	32813	
3855	0	32644	
3856	0	32660	
3857	0	32720	
3858	0	32686	
3859	0	32636	
3860	0	32645	
3861	0	32680	
3862	0	32825	
3863	0	32740	
3864	0	32844	
3865	0	32772	
3866	0	32784	
3867	0	32800	
3868	0	32852	
3869	0	32884	
3870	0	32992	
3871	0	32880	
3872	0	32892	
3873	0	32776	
3874	0	32700	
3875	0	32652	
3876	0	32680	
3877	0	32684	
3878	0	32724	
3879	0	32820	
3880	0	32741	
3881	0	32694	
3882	0	32624	
3883	0	32800	
3884	0	32852	
3885	0	32881	
3886	0	32776	
3887	0	32764	
3888	0	32808	
3889	0	32792	
3890	0	32828	
3891	0	32844	
3892	0	32828	
3893	0	32848	
3894	0	32816	
3895	0	32672	
3896	0	32728	
3897	0	32708	
3898	0	32704	
3899	0	32645	
3900	0	32624	
3901	0	32728	
3902	0	32736	
3903	0	32801	
3904	0	32896	
3905	0	32844	
3906	0	32832	
3907	0	32796	
3908	0	32832	
3909	0	32832	
3910	0	32884	
3911	0	32856	
3912	0	32916	
3913	0	32884	
3914	0	32680	
3915	0	32601	
3916	0	32756	
3917	0	32708	
3918	0	32657	
3919	0	32692	
3920	0	32632	
3921	0	32724	
3922	0	32776	
3923	0	32864	
3924	0	32824	
3925	0	32884	
3926	0	32964	
3927	0	32865	
3928	0	32816	
3929	0	32742	
3930	0	32780	
3931	0	32804	
3932	0	32872	
3933	0	32840	
3934	0	32752	
3935	0	32740	
3936	0	32684	
3937	0	32644	
3938	0	32664	
3939	0	32644	
3940	0	32700	
3941	0	32672	
3942	0	32844	
3943	0	32830	
3944	0	32894	
3945	0	32876	
3946	0	32814	
3947	0	32797	
3948	0	32832	
3949	0	32904	
3950	0	32808	
3951	0	32772	
3952	0	32828	
3953	0	32908	
3954	0	32838	
3955	0	32804	
3956	0	32694	
3957	0	32698	
3958	0	32646	
3959	0	32636	
3960	0	32596	
3961	0	32700	
3962	0	32840	
3963	0	32796	
3964	0	32850	
3965	0	32900	
3966	0	32896	
3967	0	32836	
3968	0	32753	
3969	0	32793	
3970	0	32844	
3971	0	32866	
3972	0	32848	
3973	0	32836	
3974	0	32772	
3975	0	32684	
3976	0	32776	
3977	0	32676	
3978	0	32612	
3979	0	32688	
3980	0	32660	
3981	0	32728	
3982	0	32856	
3983	0	32772	
3984	0	32884	
3985	0	32896	
3986	0	32788	
3987	0	32832	
3988	0	32832	
3989	0	32825	
3990	0	32830	
3991	0	32764	
3992	0	32808	
3993	0	32815	
3994	0	32796	
3995	0	32737	
3996	0	32764	
3997	0	32740	
3998	0	32684	
3999	0	32645	
4000	0	32624	
4001	0	32768	
4002	0	32756	
4003	0	32813	
4004	0	32864	
4005	0	32848	
4006	0	32892	
4007	0	32852	
4008	0	32824	
4009	0	32856	
4010	0	32866	
4011	0	32872	
4012	0	32932	
4013	0	32820	
4014	0	32736	
4015	0	32736	
4016	0	32668	
4017	0	32728	
4018	0	32644	
4019	0	32600	
4020	0	32580	
4021	0	32732	
4022	0	32789	
4023	0	32876	
4024	0	32852	
4025	0	32876	
4026	0	32816	
4027	0	32768	
4028	0	32824	
4029	0	32909	
4030	0	32828	
4031	0	32820	
4032	0	32824	
4033	0	32863	
4034	0	32824	
4035	0	32764	
4036	0	32660	
4037	0	32612	
4038	0	32646	
4039	0	32528	
4040	0	32488	
4041	0	32673	
4042	0	32826	
4043	0	32848	
4044	0	32832	
4045	0	32933	
4046	0	32941	
4047	0	32900	
4048	0	32864	
4049	0	32888	
4050	0	32860	
4051	0	32748	
4052	0	32816	
4053	0	32860	
4054	0	32752	
4055	0	32736	
4056	0	32692	
4057	0	32632	
4058	0	32646	
4059	0	32688	
4060	0	32677	
4061	0	32760	
4062	0	32800	
4063	0	32818	
4064	0	32848	
4065	0	32808	
4066	0	32836	
4067	0	32832	
4068	0	32889	
4069	0	32877	
4070	0	32824	
4071	0	32816	
4072	0	32849	
4073	0	32884	
4074	0	32734	
4075	0	32688	
4076	0	32720	
4077	0	32726	
4078	0	32668	
4079	0	32660	
4080	0	32668	
4081	0	32668	
4082	0	32804	
4083	0	32876	
4084	0	32864	
4085	0	32848	
4086	0	32892	
4087	0	32832	
4088	0	32868	
4089	0	32878	
4090	0	32961	
4091	0	32860	
4092	0	32848	
4093	0	32684	
4094	0	32753	
4095	0	32697	
4096	0	32736	
4097	0	32668	
4098	0	32640	
4099	0	32650	
4100	0	32624	
4101	0	32782	
4102	0	32840	
4103	0	32888	
4104	0	32784	
4105	0	32849	
4106	0	32838	
4107	0	32791	
4108	0	32776	
4109	0	32848	
4110	0	32909	
4111	0	32844	
4112	0	32844	
4113	0	32856	
4114	0	32837	
4115	0	32660	
4116	0	32696	
4117	0	32753	
4118	0	32624	
4119	0	32628	
4120	0	32665	
4121	0	32705	
4122	0	32764	
4123	0	32880	
4124	0	32772	
4125	0	32832	
4126	0	32832	
4127	0	32796	
4128	0	32793	
4129	0	32948	
4130	0	32860	
4131	0	32824	
4132	0	32832	
4133	0	32684	
4134	0	32692	
4135	0	32721	
4136	0	32728	
4137	0	32660	
4138	0	32644	
4139	0	32672	
4140	0	32726	
4141	0	32716	
4142	0	32868	
4143	0	32824	
4144	0	32897	
4145	0	32808	
4146	0	32748	
4147	0	32822	
4148	0	32800	
4149	0	32832	
4150	0	32884	
4151	0	32864	
4152	0	32850	
4153	0	32772	
4154	0	32748	
4155	0	32740	
4156	0	32736	
4157	0	32740	
4158	0	32708	
4159	0	32720	
4160	0	32552	
4161	0	32632	
4162	0	32744	
4163	0	32860	
4164	0	32808	
4165	0	32820	
4166	0	32812	
4167	0	32856	
4168	0	32832	
4169	0	32845	
4170	0	32860	
4171	0	32866	
4172	0	32910	
4173	0	32800	
4174	0	32724	
4175	0	32752	
4176	0	32672	
4177	0	32737	
4178	0	32720	
4179	0	32584	
4180	0	32588	
4181	0	32698	
4182	0	32740	
4183	0	32852	
4184	0	32844	
4185	0	32834	
4186	0	32812	
4187	0	32834	
4188	0	32860	
4189	0	32840	
4190	0	32868	
4191	0	32852	
4192	0	32792	
4193	0	32820	
4194	0	32756	
4195	0	32761	
4196	0	32756	
4197	0	32668	
4198	0	32588	
4199	0	32535	
4200	0	32636	
4201	0	32696	
4202	0	32748	
4203	0	32865	
4204	0	32864	
4205	0	32888	
4206	0	32856	
4207	0	32864	
4208	0	32832	
4209	0	32810	
4210	0	32821	
4211	0	32839	
4212	0	32828	
4213	0	32824	
4214	0	32760	
4215	0	32720	
4216	0	32692	
4217	0	32724	
4218	0	32668	
4219	0	32685	
4220	0	32636	
4221	0	32701	
4222	0	32788	
4223	0	32780	
4224	0	32813	
4225	0	32936	
4226	0	32879	
4227	0	32856	
4228	0	32760	
4229	0	32856	
4230	0	32888	
4231	0	32812	
4232	0	32816	
4233	0	32680	
4234	0	32775	
4235	0	32796	
4236	0	32854	
4237	0	32768	
4238	0	32592	
4239	0	32609	
4240	0	32676	
4241	0	32712	
4242	0	32732	
4243	0	32774	
4244	0	32902	
4245	0	32866	
4246	0	32877	
4247	0	32897	
4248	0	32880	
4249	0	32852	
4250	0	32892	
4251	0	32750	
4252	0	32840	
4253	0	32812	
4254	0	32704	
4255	0	32716	
4256	0	32644	
4257	0	32654	
4258	0	32631	
4259	0	32708	
4260	0	32647	
4261	0	32672	
4262	0	32808	
4263	0	32832	
4264	0	32884	
4265	0	32877	
4266	0	32901	
4267	0	32826	
4268	0	32800	
4269	0	32856	
4270	0	32896	
4271	0	32896	
4272	0	32724	
4273	0	32724	
4274	0	32813	
4275	0	32752	
4276	0	32640	
4277	0	32636	
4278	0	32580	
4279	0	32676	
4280	0	32684	
4281	0	32677	
4282	0	32700	
4283	0	32860	
4284	0	32812	
4285	0	32790	
4286	0	32800	
4287	0	32756	
4288	0	32868	
4289	0	32824	
4290	0	32932	
4291	0	32940	
4292	0	32940	
4293	0	32968	
4294	0	32804	
4295	0	32824	
4296	0	32740	
4297	0	32632	
4298	0	32696	
4299	0	32708	
4300	0	32660	
4301	0	32712	
4302	0	32812	
4303	0	32832	
4304	0	32796	
4305	0	32844	
4306	0	32878	
4307	0	32860	
4308	0	32845	
4309	0	32888	
4310	0	32816	
4311	0	32944	
4312	0	32960	
4313	0	32884	
4314	0	32760	
4315	0	32700	
4316	0	32657	
4317	0	32670	
4318	0	32556	
4319	0	32608	
4320	0	32613	
4321	0	32685	
4322	0	32774	
4323	0	32801	
4324	0	32821	
4325	0	32856	
4326	0	32788	
4327	0	32864	
4328	0	32820	
4329	0	32848	
4330	0	32856	
4331	0	32770	
4332	0	32832	
4333	0	32890	
4334	0	32861	
4335	0	32756	
4336	0	32708	
4337	0	32670	
4338	0	32728	
4339	0	32654	
4340	0	32676	
4341	0	32708	
4342	0	32756	
4343	0	32792	
4344	0	32822	
4345	0	32816	
4346	0	32832	
4347	0	32728	
4348	0	32876	
4349	0	32804	
4350	0	32814	
4351	0	32832	
4352	0	32903	
4353	0	32868	
4354	0	32814	
4355	0	32728	
4356	0	32637	
4357	0	32700	
4358	0	32668	
4359	0	32628	
4360	0	32636	
4361	0	32704	
4362	0	32712	
4363	0	32712	
4364	0	32820	
4365	0	32834	
4366	0	32879	
4367	0	32968	
4368	0	32952	
4369	0	32948	
4370	0	32740	
4371	0	32790	
4372	0	32860	
4373	0	32832	
4374	0	32828	
4375	0	32660	
4376	0	32624	
4377	0	32678	
4378	0	32709	
4379	0	32704	
4380	0	32652	
4381	0	32725	
4382	0	32760	
4383	0	32776	
4384	0	32812	
4385	0	32880	
4386	0	32896	
4387	0	32876	
4388	0	32824	
4389	0	32912	
4390	0	32908	
4391	0	32748	
4392	0	32808	
4393	0	32794	
4394	0	32743	
4395	0	32748	
4396	0	32656	
4397	0	32608	
4398	0	32633	
4399	0	32672	
4400	0	32628	
4401	0	32728	
4402	0	32752	
4403	0	32820	
4404	0	32844	
4405	0	32861	
4406	0	32820	
4407	0	32828	
4408	0	32844	
4409	0	32877	
4410	0	32932	
4411	0	32864	
4412	0	32964	
4413	0	32916	
4414	0	32792	
4415	0	32748	
4416	0	32592	
4417	0	32668	
4418	0	32644	
4419	0	32596	
4420	0	32604	
4421	0	32720	
4422	0	32797	
4423	0	32808	
4424	0	32853	
4425	0	32832	
4426	0	32888	
4427	0	32744	
4428	0	32900	
4429	0	32880	
4430	0	32897	
4431	0	32868	
4432	0	32824	
4433	0	32837	
4434	0	32852	
4435	0	32720	
4436	0	32680	
4437	0	32704	
4438	0	32632	
4439	0	32676	
4440	0	32628	
4441	0	32590	
4442	0	32772	
4443	0	32884	
4444	0	32832	
4445	0	32841	
4446	0	32848	
4447	0	32788	
4448	0	32822	
4449	0	32796	
4450	0	32786	
4451	0	32820	
4452	0	32892	
4453	0	32832	
4454	0	32868	
4455	0	32772	
4456	0	32729	
4457	0	32692	
4458	0	32808	
4459	0	32766	
4460	0	32536	
4461	0	32676	
4462	0	32696	
4463	0	32794	
4464	0	32800	
4465	0	32868	
4466	0	32796	
4467	0	32848	
4468	0	32868	
4469	0	32868	
4470	0	32896	
4471	0	32836	
4472	0	32784	
4473	0	32860	
4474	0	32846	
4475	0	32772	
4476	0	32748	
4477	0	32716	
4478	0	32656	
4479	0	32612	
4480	0	32620	
4481	0	32628	
4482	0	32840	
4483	0	32885	
4484	0	32844	
4485	0	32832	
4486	0	32740	
4487	0	32764	
4488	0	32804	
4489	0	32756	
4490	0	32804	
4491	0	32828	
4492	0	32876	
4493	0	32954	
4494	0	32893	
4495	0	32720	
4496	0	32681	
4497	0	32696	
4498	0	32678	
4499	0	32668	
4500	0	32704	
4501	0	32660	
4502	0	32720	
4503	0	32732	
4504	0	32836	
4505	0	32928	
4506	0	32904	
4507	0	32844	
4508	0	32736	
4509	0	32792	
4510	0	32836	
4511	0	32805	
4512	0	32840	
4513	0	32916	
4514	0	32804	
4515	0	32796	
4516	0	32734	
4517	0	32724	
4518	0	32676	
4519	0	32648	
4520	0	32664	
4521	0	32698	
4522	0	32736	
4523	0	32832	
4524	0	32788	
4525	0	32848	
4526	0	32844	
4527	0	32844	
4528	0	32788	
4529	0	32868	
4530	0	32852	
4531	0	32936	
4532	0	32888	
4533	0	32848	
4534	0	32756	
4535	0	32717	
4536	0	32692	
4537	0	32704	
4538	0	32660	
4539	0	32624	
4540	0	32740	
4541	0	32736	
4542	0	32716	
4543	0	32812	
4544	0	32840	
4545	0	32848	
4546	0	32828	
4547	0	32820	
4548	0	32848	
4549	0	32824	
4550	0	32792	
4551	0	32836	
4552	0	32812	
4553	0	32844	
4554	0	32822	
4555	0	32698	
4556	0	32656	
4557	0	32724	
4558	0	32708	
4559	0	32652	
4560	0	32660	
4561	0	32712	
4562	0	32844	
4563	0	32848	
4564	0	32820	
4565	0	32837	
4566	0	32804	
4567	0	32781	
4568	0	32844	
4569	0	32820	
4570	0	32848	
4571	0	32792	
4572	0	32884	
4573	0	32916	
4574	0	32816	
4575	0	32680	
4576	0	32660	
4577	0	32672	
4578	0	32704	
4579	0	32660	
4580	0	32570	
4581	0	32649	
4582	0	32764	
4583	0	32814	
4584	0	32840	
4585	0	32816	
4586	0	32924	
4587	0	32792	
4588	0	32896	
4589	0	32960	
4590	0	32876	
4591	0	32760	
4592	0	32760	
4593	0	32784	
4594	0	32792	
4595	0	32756	
4596	0	32724	
4597	0	32688	
4598	0	32668	
4599	0	32652	
4600	0	32588	
4601	0	32676	
4602	0	32756	
4603	0	32800	
4604	0	32925	
4605	0	32876	
4606	0	32828	
4607	0	32792	
4608	0	32740	
4609	0	32832	
4610	0	32872	
4611	0	32796	
4612	0	32880	
4613	0	32868	
4614	0	32812	
4615	0	32804	
4616	0	32740	
4617	0	32780	
4618	0	32728	
4619	0	32696	
4620	0	32697	
4621	0	32624	
4622	0	32733	
4623	0	32760	
4624	0	32820	
4625	0	32852	
4626	0	32840	
4627	0	32744	
4628	0	32736	
4629	0	32768	
4630	0	32868	
4631	0	32976	
4632	0	32924	
4633	0	32868	
4634	0	32832	
4635	0	32748	
4636	0	32606	
4637	0	32612	
4638	0	32704	
4639	0	32664	
4640	0	32664	
4641	0	32748	
4642	0	32672	
4643	0	32684	
4644	0	32824	
4645	0	33016	
4646	0	32912	
4647	0	32852	
4648	0	32868	
4649	0	32744	
4650	0	32868	
4651	0	32706	
4652	0	32820	
4653	0	32893	
4654	0	32740	
4655	0	32728	
4656	0	32748	
4657	0	32756	
4658	0	32800	
4659	0	32596	
4660	0	32664	
4661	0	32704	
4662	0	32700	
4663	0	32744	
4664	0	32828	
4665	0	32868	
4666	0	32876	
4667	0	32888	
4668	0	32764	
4669	0	32804	
4670	0	32844	
4671	0	32780	
4672	0	32836	
4673	0	32896	
4674	0	32868	
4675	0	32730	
4676	0	32684	
4677	0	32740	
4678	0	32772	
4679	0	32748	
4680	0	32696	
4681	0	32732	
4682	0	32720	
4683	0	32760	
4684	0	32866	
4685	0	32868	
4686	0	32808	
4687	0	32817	
4688	0	32892	
4689	0	32790	
4690	0	32800	
4691	0	32808	
4692	0	32792	
4693	0	32861	
4694	0	32871	
4695	0	32848	
4696	0	32712	
4697	0	32660	
4698	0	32644	
4699	0	32621	
4700	0	32624	
4701	0	32724	
4702	0	32712	
4703	0	32840	
4704	0	32800	
4705	0	32764	
4706	0	32792	
4707	0	32901	
4708	0	32788	
4709	0	32820	
4710	0	32896	
4711	0	32854	
4712	0	32832	
4713	0	32872	
4714	0	32830	
4715	0	32756	
4716	0	32708	
4717	0	32676	
4718	0	32828	
4719	0	32680	
4720	0	32656	
4721	0	32676	
4722	0	32660	
4723	0	32778	
4724	0	32744	
4725	0	32812	
4726	0	32841	
4727	0	32832	
4728	0	32828	
4729	0	32772	
4730	0	32860	
4731	0	32808	
4732	0	32864	
4733	0	32868	
4734	0	32804	
4735	0	32806	
4736	0	32788	
4737	0	32752	
4738	0	32756	
4739	0	32602	
4740	0	32645	
4741	0	32700	
4742	0	32704	
4743	0	32804	
4744	0	32844	
4745	0	32813	
4746	0	32784	
4747	0	32822	
4748	0	32785	
4749	0	32824	
4750	0	32801	
4751	0	32860	
4752	0	32920	
4753	0	32912	
4754	0	32808	
4755	0	32712	
4756	0	32645	
4757	0	32733	
4758	0	32778	
4759	0	32681	
4760	0	32660	
4761	0	32704	
4762	0	32676	
4763	0	32736	
4764	0	32708	
4765	0	32838	
4766	0	32868	
4767	0	32872	
4768	0	32815	
4769	0	32872	
4770	0	32884	
4771	0	32832	
4772	0	32908	
4773	0	32844	
4774	0	32752	
4775	0	32664	
4776	0	32702	
4777	0	32764	
4778	0	32796	
4779	0	32740	
4780	0	32700	
4781	0	32672	
4782	0	32700	
4783	0	32700	
4784	0	32752	
4785	0	32880	
4786	0	32932	
4787	0	32886	
4788	0	32864	
4789	0	32836	
4790	0	32804	
4791	0	32844	
4792	0	32844	
4793	0	32864	
4794	0	32824	
4795	0	32736	
4796	0	32680	
4797	0	32696	
4798	0	32716	
4799	0	32608	
4800	0	32640	
4801	0	32680	
4802	0	32760	
4803	0	32820	
4804	0	32829	
4805	0	32834	
4806	0	32864	
4807	0	32808	
4808	0	32848	
4809	0	32861	
4810	0	32784	
4811	0	32828	
4812	0	32804	
4813	0	32832	
4814	0	32792	
4815	0	32736	
4816	0	32712	
4817	0	32748	
4818	0	32740	
4819	0	32660	
4820	0	32736	
4821	0	32725	
4822	0	32685	
4823	0	32760	
4824	0	32804	
4825	0	32804	
4826	0	32838	
4827	0	32844	
4828	0	32856	
4829	0	32780	
4830	0	32789	
4831	0	32812	
4832	0	32796	
4833	0	32872	
4834	0	32812	
4835	0	32808	
4836	0	32804	
4837	0	32660	
4838	0	32773	
4839	0	32724	
4840	0	32680	
4841	0	32669	
4842	0	32740	
4843	0	32766	
4844	0	32776	
4845	0	32820	
4846	0	32840	
4847	0	32868	
4848	0	32836	
4849	0	32940	
4850	0	32880	
4851	0	32824	
4852	0	32877	
4853	0	32920	
4854	0	32901	
4855	0	32740	
4856	0	32670	
4857	0	32628	
4858	0	32580	
4859	0	32512	
4860	0	32560	
4861	0	32620	
4862	0	32732	
4863	0	32844	
4864	0	32924	
4865	0	33028	
4866	0	32945	
4867	0	32741	
4868	0	32749	
4869	0	32758	
4870	0	32836	
4871	0	32934	
4872	0	32928	
4873	0	32852	
4874	0	32833	
4875	0	32688	
4876	0	32706	
4877	0	32704	
4878	0	32678	
4879	0	32668	
4880	0	32636	
4881	0	32784	
4882	0	32794	
4883	0	32788	
4884	0	32784	
4885	0	32812	
4886	0	32878	
4887	0	32836	
4888	0	32820	
4889	0	32812	
4890	0	32904	
4891	0	32896	
4892	0	32880	
4893	0	32902	
4894	0	32848	
4895	0	32748	
4896	0	32712	
4897	0	32661	
4898	0	32716	
4899	0	32664	
4900	0	32698	
4901	0	32660	
4902	0	32648	
4903	0	32721	
4904	0	32868	
4905	0	32844	
4906	0	32890	
4907	0	32878	
4908	0	32856	
4909	0	32800	
4910	0	32820	
4911	0	32864	
4912	0	32804	
4913	0	32824	
4914	0	32780	
4915	0	32708	
4916	0	32704	
4917	0	32644	
4918	0	32708	
4919	0	32648	
4920	0	32608	
4921	0	32616	
4922	0	32680	
4923	0	32700	
4924	0	32792	
4925	0	32862	
4926	0	32840	
4927	0	32852	
4928	0	32877	
4929	0	32816	
4930	0	32864	
4931	0	32792	
4932	0	32788	
4933	0	32832	
4934	0	32880	
4935	0	32736	
4936	0	32748	
4937	0	32852	
4938	0	32808	
4939	0	32740	
4940	0	32720	
4941	0	32780	
4942	0	32756	
4943	0	32836	
4944	0	32762	
4945	0	32836	
4946	0	32836	
4947	0	32812	
4948	0	32880	
4949	0	32884	
4950	0	32832	
4951	0	32804	
4952	0	32916	
4953	0	32842	
4954	0	32732	
4955	0	32656	
4956	0	32708	
4957	0	32860	
4958	0	32704	
4959	0	32604	
4960	0	32596	
4961	0	32648	
4962	0	32688	
4963	0	32724	
4964	0	32832	
4965	0	32864	
4966	0	33028	
4967	0	32928	
4968	0	32828	
4969	0	32828	
4970	0	32748	
4971	0	32828	
4972	0	32832	
4973	0	32936	
4974	0	32892	
4975	0	32740	
4976	0	32648	
4977	0	32644	
4978	0	32596	
4979	0	32636	
4980	0	32636	
4981	0	32680	
4982	0	32784	
4983	0	32775	
4984	0	32816	
4985	0	32840	
4986	0	32800	
4987	0	32836	
4988	0	32844	
4989	0	32800	
4990	0	32900	
4991	0	32808	
4992	0	32948	
4993	0	32910	
4994	0	32892	
4995	0	32788	
4996	0	32696	
4997	0	32720	
4998	0	32728	
4999	0	32654	
5000	0	32600	
5001	0	32584	
5002	0	32788	
5003	0	32876	
5004	0	32800	
5005	0	32752	
5006	0	32876	
5007	0	32844	
5008	0	32812	
5009	0	32888	
5010	0	32812	
5011	0	32884	
5012	0	32884	
5013	0	32856	
5014	0	32856	
5015	0	32701	
5016	0	32744	
5017	0	32708	
5018	0	32728	
5019	0	32681	
5020	0	32772	
5021	0	32817	
5022	0	32656	
5023	0	32748	
5024	0	32744	
5025	0	32712	
5026	0	32760	
5027	0	32752	
5028	0	32840	
5029	0	32972	
5030	0	32948	
5031	0	32886	
5032	0	32812	
5033	0	32720	
5034	0	32897	
5035	0	32692	
5036	0	32708	
5037	0	32669	
5038	0	32544	
5039	0	32561	
5040	0	32540	
5041	0	32564	
5042	0	32720	
5043	0	32972	
5044	0	32880	
5045	0	32848	
5046	0	32840	
5047	0	32848	
5048	0	32784	
5049	0	32880	
5050	0	33020	
5051	0	33144	
5052	0	32993	
5053	0	33096	
5054	0	33218	
5055	0	33236	
5056	0	32884	
5057	0	32508	
5058	0	32104	
5059	0	31552	
5060	0	31096	
5061	0	31484	
5062	0	31992	
5063	0	32244	
5064	0	32596	
5065	0	33086	
5066	0	33428	
5067	0	33612	
5068	0	33752	
5069	0	33968	
5070	0	34342	
5071	0	34228	
5072	0	34592	
5073	0	34092	
5074	0	33087	
5075	0	32412	
5076	0	32206	
5077	0	31880	
5078	0	30896	
5079	0	30305	
5080	0	30656	
5081	0	31368	
5082	0	31764	
5083	0	32452	
5084	0	32934	
5085	0	33604	
5086	0	33656	
5087	0	33092	
5088	0	32696	
5089	0	33308	
5090	0	33140	
5091	0	32932	
5092	0	32920	
5093	0	33324	
5094	0	33437	
5095	0	33839	
5096	0	34061	
5097	0	33992	
5098	0	33676	
5099	0	33541	
5100	0	33452	
5101	0	33408	
5102	0	33016	
5103	0	32838	
5104	0	32696	
5105	0	32460	
5106	0	32384	
5107	0	32472	
5108	0	32700	
5109	0	33012	
5110	0	33148	
5111	0	32737	
5112	0	32608	
5113	0	32332	
5114	0	32492	
5115	0	32404	
5116	0	31628	
5117	0	31181	
5118	0	31512	
5119	0	31584	
5120	0	31600	
5121	0	31788	
5122	0	32024	
5123	0	32740	
5124	0	33664	
5125	0	34148	
5126	0	33812	
5127	0	32764	
5128	0	32332	
5129	0	32192	
5130	0	32000	
5131	0	32660	
5132	0	32605	
5133	0	32180	
5134	0	32560	
5135	0	32604	
5136	0	32980	
5137	0	33524	
5138	0	33633	
5139	0	33593	
5140	0	33392	
5141	0	32856	
5142	0	32822	
5143	0	32968	
5144	0	32612	
5145	0	31920	
5146	0	32080	
5147	0	32888	
5148	0	32996	
5149	0	32720	
5150	0	33184	
5151	0	33464	
5152	0	34148	
5153	0	34788	
5154	0	34764	
5155	0	33836	
5156	0	32852	
5157	0	31156	
5158	0	30664	
5159	0	31268	
5160	0	32036	
5161	0	32612	
5162	0	31920	
5163	0	31984	
5164	0	32740	
5165	0	33165	
5166	0	33708	
5167	0	34112	
5168	0	34152	
5169	0	34264	
5170	0	34265	
5171	0	34446	
5172	0	33780	
5173	0	32452	
5174	0	32117	
5175	0	32420	
5176	0	31895	
5177	0	31368	
5178	0	31728	
5179	0	31420	
5180	0	31718	
5181	0	32152	
5182	0	31980	
5183	0	32296	
5184	0	32624	
5185	0	32885	
5186	0	33368	
5187	0	34272	
5188	0	34028	
5189	0	33848	
5190	0	33232	
5191	0	32500	
5192	0	32372	
5193	0	32484	
5194	0	32680	
5195	0	32485	
5196	0	32319	
5197	0	32332	
5198	0	32456	
5199	0	32568	
5200	0	32716	
5201	0	32644	
5202	0	33268	
5203	0	33676	
5204	0	32724	
5205	0	32308	
5206	0	32060	
5207	0	31040	
5208	0	30356	
5209	0	30861	
5210	0	31924	
5211	0	32767	
5212	0	33685	
5213	0	34456	
5214	0	34208	
5215	0	33784	
5216	0	33653	
5217	0	33676	
5218	0	34432	
5219	0	34400	
5220	0	33324	
5221	0	32900	
5222	0	32120	
5223	0	31268	
5224	0	30625	
5225	0	30672	
5226	0	30772	
5227	0	31432	
5228	0	32054	
5229	0	33036	
5230	0	33932	
5231	0	33852	
5232	0	32720	
5233	0	32412	
5234	0	32832	
5235	0	33208	
5236	0	33364	
5237	0	33740	
5238	0	33620	
5239	0	33748	
5240	0	34465	
5241	0	34388	
5242	0	34868	
5243	0	34336	
5244	0	32564	
5245	0	31928	
5246	0	32404	
5247	0	33132	
5248	0	33312	
5249	0	33988	
5250	0	33956	
5251	0	33888	
5252	0	33428	
5253	0	32796	
5254	0	32592	
5255	0	31528	
5256	0	31089	
5257	0	31378	
5258	0	31340	
5259	0	31376	
5260	0	31680	
5261	0	31954	
5262	0	32330	
5263	0	32112	
5264	0	32012	
5265	0	32468	
5266	0	32536	
5267	0	32244	
5268	0	32032	
5269	0	32180	
5270	0	32552	
5271	0	32856	
5272	0	33173	
5273	0	33440	
5274	0	33833	
5275	0	34300	
5276	0	34352	
5277	0	34132	
5278	0	33949	
5279	0	33336	
5280	0	32989	
5281	0	32872	
5282	0	32204	
5283	0	32084	
5284	0	32109	
5285	0	32124	
5286	0	31964	
5287	0	32040	
5288	0	31844	
5289	0	31656	
5290	0	31740	
5291	0	32052	
5292	0	32533	
5293	0	33268	
5294	0	34108	
5295	0	34280	
5296	0	34178	
5297	0	34092	
5298	0	33693	
5299	0	33180	
5300	0	32680	
5301	0	30913	
5302	0	29533	
5303	0	29332	
5304	0	30033	
5305	0	31020	
5306	0	31200	
5307	0	32165	
5308	0	33312	
5309	0	33802	
5310	0	34072	
5311	0	34100	
5312	0	34012	
5313	0	34864	
5314	0	35724	
5315	0	34950	
5316	0	34068	
5317	0	32864	
5318	0	33560	
5319	0	34020	
5320	0	34228	
5321	0	34140	
5322	0	32792	
5323	0	31637	
5324	0	30932	
5325	0	31068	
5326	0	31456	
5327	0	31816	
5328	0	31989	
5329	0	32580	
5330	0	33856	
5331	0	34896	
5332	0	35764	
5333	0	35502	
5334	0	35148	
5335	0	34720	
5336	0	33829	
5337	0	32480	
5338	0	31804	
5339	0	31344	
5340	0	31616	
5341	0	30548	
5342	0	30100	
5343	0	31164	
5344	0	32068	
5345	0	32662	
5346	0	32444	
5347	0	32366	
5348	0	32160	
5349	0	31918	
5350	0	32480	
5351	0	33262	
5352	0	33156	
5353	0	32704	
5354	0	32036	
5355	0	32032	
5356	0	32596	
5357	0	33316	
5358	0	32774	
5359	0	32540	
5360	0	32485	
5361	0	33184	
5362	0	33124	
5363	0	32664	
5364	0	32144	
5365	0	32269	
5366	0	32680	
5367	0	33252	
5368	0	33678	
5369	0	33764	
5370	0	32840	
5371	0	31964	
5372	0	31328	
5373	0	31076	
5374	0	30588	
5375	0	31788	
5376	0	32800	
5377	0	33228	
5378	0	33476	
5379	0	32520	
5380	0	32684	
5381	0	32916	
5382	0	32724	
5383	0	32357	
5384	0	32412	
5385	0	32884	
5386	0	32660	
5387	0	33902	
5388	0	34456	
5389	0	34860	
5390	0	33572	
5391	0	30952	
5392	0	30020	
5393	0	30840	
5394	0	32696	
5395	0	33572	
5396	0	33332	
5397	0	34208	
5398	0	35620	
5399	0	36292	
5400	0	36140	
5401	0	35920	
5402	0	36256	
5403	0	36940	
5404	0	35864	
5405	0	34574	
5406	0	33692	
5407	0	32828	
5408	0	32372	
5409	0	32356	
5410	0	32332	
5411	0	31588	
5412	0	30564	
5413	0	29328	
5414	0	29001	
5415	0	29197	
5416	0	29750	
5417	0	30412	
5418	0	30564	
5419	0	30982	
5420	0	32244	
5421	0	32496	
5422	0	32622	
5423	0	32846	
5424	0	33268	
5425	0	33084	
5426	0	33176	
5427	0	32884	
5428	0	32793	
5429	0	33076	
5430	0	33416	
5431	0	33789	
5432	0	33765	
5433	0	33100	
5434	0	32212	
5435	0	31468	
5436	0	31728	
5437	0	31868	
5438	0	32194	
5439	0	31984	
5440	0	31984	
5441	0	32744	
5442	0	33325	
5443	0	33072	
5444	0	33352	
5445	0	34272	
5446	0	34702	
5447	0	34601	
5448	0	33402	
5449	0	32620	
5450	0	32888	
5451	0	32756	
5452	0	29873	
5453	0	30164	
5454	0	31828	
5455	0	31716	
5456	0	29468	
5457	0	29604	
5458	0	29672	
5459	0	31512	
5460	0	34072	
5461	0	35932	
5462	0	36520	
5463	0	36485	
5464	0	35836	
5465	0	35840	
5466	0	35724	
5467	0	35300	
5468	0	34902	
5469	0	34052	
5470	0	32968	
5471	0	32936	
5472	0	32540	
5473	0	30752	
5474	0	30332	
5475	0	30583	
5476	0	31313	
5477	0	31940	
5478	0	33408	
5479	0	35016	
5480	0	35812	
5481	0	35964	
5482	0	35272	
5483	0	34732	
5484	0	34064	
5485	0	32924	
5486	0	32176	
5487	0	31588	
5488	0	31365	
5489	0	31540	
5490	0	31918	
5491	0	31400	
5492	0	30948	
5493	0	31152	
5494	0	31040	
5495	0	30708	
5496	0	30764	
5497	0	30856	
5498	0	31072	
5499	0	31524	
5500	0	31420	
5501	0	31242	
5502	0	31599	
5503	0	32013	
5504	0	32840	
5505	0	34276	
5506	0	35164	
5507	0	35136	
5508	0	34126	
5509	0	33900	
5510	0	33681	
5511	0	33536	
5512	0	34448	
5513	0	34204	
5514	0	32568	
5515	0	31968	
5516	0	31856	
5517	0	31028	
5518	0	30244	
5519	0	28904	
5520	0	28664	
5521	0	29160	
5522	0	30649	
5523	0	32970	
5524	0	34924	
5525	0	37004	
5526	0	38365	
5527	0	38108	
5528	0	36904	
5529	0	34512	
5530	0	32446	
5531	0	32100	
5532	0	31236	
5533	0	31044	
5534	0	31232	
5535	0	32020	
5536	0	32632	
5537	0	32820	
5538	0	33160	
5539	0	33720	
5540	0	33416	
5541	0	32276	
5542	0	32236	
5543	0	32817	
5544	0	32974	
5545	0	33068	
5546	0	31886	
5547	0	32408	
5548	0	33266	
5549	0	32080	
5550	0	30588	
5551	0	30416	
5552	0	30457	
5553	0	31380	
5554	0	32104	
5555	0	33716	
5556	0	34369	
5557	0	35560	
5558	0	36344	
5559	0	36344	
5560	0	36404	
5561	0	35612	
5562	0	33916	
5563	0	33454	
5564	0	34156	
5565	0	33764	
5566	0	32388	
5567	0	31692	
5568	0	31112	
5569	0	30812	
5570	0	30540	
5571	0	30832	
5572	0	31090	
5573	0	30708	
5574	0	30300	
5575	0	30004	
5576	0	30157	
5577	0	31200	
5578	0	32520	
5579	0	33652	
5580	0	35672	
5581	0	36477	
5582	0	36400	
5583	0	35160	
5584	0	32544	
5585	0	31668	
5586	0	32224	
5587	0	31932	
5588	0	31452	
5589	0	31508	
5590	0	31268	
5591	0	30772	
5592	0	31420	
5593	0	32244	
5594	0	32616	
5595	0	33432	
5596	0	34484	
5597	0	34404	
5598	0	34528	
5599	0	33964	
5600	0	32888	
5601	0	32392	
5602	0	31708	
5603	0	31220	
5604	0	31433	
5605	0	32376	
5606	0	32988	
5607	0	33626	
5608	0	33536	
5609	0	33686	
5610	0	34120	
5611	0	35120	
5612	0	33452	
5613	0	33236	
5614	0	31876	
5615	0	30144	
5616	0	29388	
5617	0	30012	
5618	0	30904	
5619	0	32192	
5620	0	33384	
5621	0	33401	
5622	0	32652	
5623	0	31932	
5624	0	32164	
5625	0	33572	
5626	0	34141	
5627	0	34984	
5628	0	35564	
5629	0	36020	
5630	0	36104	
5631	0	35860	
5632	0	35752	
5633	0	34372	
5634	0	33696	
5635	0	32652	
5636	0	32222	
5637	0	32136	
5638	0	31664	
5639	0	30748	
5640	0	30748	
5641	0	30800	
5642	0	31286	
5643	0	31513	
5644	0	32040	
5645	0	32028	
5646	0	32408	
5647	0	32732	
5648	0	32600	
5649	0	32280	
5650	0	32612	
5651	0	33324	
5652	0	33548	
5653	0	33199	
5654	0	33080	
5655	0	32400	
5656	0	32068	
5657	0	32300	
5658	0	32265	
5659	0	31568	
5660	0	30357	
5661	0	30305	
5662	0	30156	
5663	0	30460	
5664	0	32016	
5665	0	33804	
5666	0	34912	
5667	0	36028	
5668	0	35292	
5669	0	33080	
5670	0	31069	
5671	0	31156	
5672	0	30696	
5673	0	32284	
5674	0	34012	
5675	0	34616	
5676	0	34848	
5677	0	35616	
5678	0	35820	
5679	0	34840	
5680	0	33986	
5681	0	33456	
5682	0	32668	
5683	0	33198	
5684	0	32680	
5685	0	31524	
5686	0	31456	
5687	0	30416	
5688	0	29225	
5689	0	29968	
5690	0	31892	
5691	0	34320	
5692	0	34456	
5693	0	34912	
5694	0	35456	
5695	0	35004	
5696	0	33996	
5697	0	34244	
5698	0	33850	
5699	0	32878	
5700	0	32100	
5701	0	32168	
5702	0	32428	
5703	0	33408	
5704	0	33816	
5705	0	32804	
5706	0	31404	
5707	0	30402	
5708	0	30828	
5709	0	31492	
5710	0	31632	
5711	0	31512	
5712	0	32068	
5713	0	32421	
5714	0	32936	
5715	0	33430	
5716	0	33144	
5717	0	32832	
5718	0	32552	
5719	0	32352	
5720	0	32968	
5721	0	33952	
5722	0	32953	
5723	0	31572	
5724	0	31296	
5725	0	29288	
5726	0	29592	
5727	0	29444	
5728	0	30148	
5729	0	31908	
5730	0	33292	
5731	0	34448	
5732	0	35852	
5733	0	36820	
5734	0	36134	
5735	0	34972	
5736	0	34860	
5737	0	35260	
5738	0	34676	
5739	0	34476	
5740	0	33836	
5741	0	32412	
5742	0	32564	
5743	0	32716	
5744	0	32608	
5745	0	31172	
5746	0	30070	
5747	0	30154	
5748	0	31096	
5749	0	32724	
5750	0	33904	
5751	0	33752	
5752	0	32720	
5753	0	32761	
5754	0	32952	
5755	0	33004	
5756	0	33198	
5757	0	32324	
5758	0	32428	
5759	0	33136	
5760	0	33512	
5761	0	32773	
5762	0	32492	
5763	0	32857	
5764	0	32357	
5765	0	31732	
5766	0	32644	
5767	0	33380	
5768	0	33364	
5769	0	32269	
5770	0	31148	
5771	0	30956	
5772	0	31248	
5773	0	31852	
5774	0	32576	
5775	0	33540	
5776	0	34037	
5777	0	35436	
5778	0	36344	
5779	0	36404	
5780	0	36480	
5781	0	34661	
5782	0	33381	
5783	0	32677	
5784	0	32040	
5785	0	30724	
5786	0	29660	
5787	0	29086	
5788	0	27749	
5789	0	26576	
5790	0	28429	
5791	0	29644	
5792	0	31188	
5793	0	32800	
5794	0	34132	
5795	0	34688	
5796	0	35304	
5797	0	37136	
5798	0	37672	
5799	0	36629	
5800	0	36056	
5801	0	35908	
5802	0	35525	
5803	0	33500	
5804	0	32844	
5805	0	31788	
5806	0	31461	
5807	0	32165	
5808	0	32792	
5809	0	32288	
5810	0	31684	
5811	0	31784	
5812	0	31376	
5813	0	30944	
5814	0	29976	
5815	0	29584	
5816	0	30544	
5817	0	32504	
5818	0	33772	
5819	0	34134	
5820	0	33116	
5821	0	31812	
5822	0	32052	
5823	0	32341	
5824	0	32948	
5825	0	33904	
5826	0	33792	
5827	0	33881	
5828	0	34277	
5829	0	34352	
5830	0	35072	
5831	0	35400	
5832	0	34620	
5833	0	33544	
5834	0	31440	
5835	0	30749	
5836	0	31132	
5837	0	30608	
5838	0	29313	
5839	0	27352	
5840	0	27628	
5841	0	29124	
5842	0	30188	
5843	0	31088	
5844	0	31136	
5845	0	33272	
5846	0	36630	
5847	0	38680	
5848	0	38792	
5849	0	38332	
5850	0	38592	
5851	0	38692	
5852	0	37636	
5853	0	35804	
5854	0	35192	
5855	0	33796	
5856	0	30120	
5857	0	29084	
5858	0	28828	
5859	0	29268	
5860	0	30565	
5861	0	31464	
5862	0	31948	
5863	0	32652	
5864	0	33124	
5865	0	32740	
5866	0	32288	
5867	0	30868	
5868	0	31520	
5869	0	32384	
5870	0	30588	
5871	0	28956	
5872	0	28588	
5873	0	29648	
5874	0	32024	
5875	0	32692	
5876	0	32612	
5877	0	34686	
5878	0	36468	
5879	0	36616	
5880	0	36196	
5881	0	35340	
5882	0	34496	
5883	0	34380	
5884	0	34612	
5885	0	34469	
5886	0	33948	
5887	0	31656	
5888	0	30838	
5889	0	30928	
5890	0	30980	
5891	0	32150	
5892	0	33717	
5893	0	35148	
5894	0	36240	
5895	0	33896	
5896	0	28820	
5897	0	25944	
5898	0	25540	
5899	0	26516	
5900	0	28616	
5901	0	31620	
5902	0	33996	
5903	0	34540	
5904	0	35056	
5905	0	36316	
5906	0	36100	
5907	0	35936	
5908	0	34380	
5909	0	32680	
5910	0	32080	
5911	0	30888	
5912	0	31644	
5913	0	32788	
5914	0	34676	
5915	0	35564	
5916	0	35872	
5917	0	35592	
5918	0	35980	
5919	0	37065	
5920	0	36484	
5921	0	36508	
5922	0	35452	
5923	0	34016	
5924	0	31948	
5925	0	31322	
5926	0	30976	
5927	0	30580	
5928	0	30360	
5929	0	30524	
5930	0	30684	
5931	0	30500	
5932	0	29405	
5933	0	29172	
5934	0	29568	
5935	0	30236	
5936	0	30740	
5937	0	31049	
5938	0	31280	
5939	0	32476	
5940	0	33564	
5941	0	33936	
5942	0	33697	
5943	0	31156	
5944	0	29374	
5945	0	30940	
5946	0	32357	
5947	0	34656	
5948	0	36860	
5949	0	37212	
5950	0	36944	
5951	0	37996	
5952	0	37688	
5953	0	34308	
5954	0	31544	
5955	0	30900	
5956	0	30222	
5957	0	30292	
5958	0	29856	
5959	0	29756	
5960	0	30660	
5961	0	31172	
5962	0	33340	
5963	0	34648	
5964	0	34872	
5965	0	35328	
5966	0	35872	
5967	0	36036	
5968	0	35184	
5969	0	32733	
5970	0	29664	
5971	0	27940	
5972	0	28084	
5973	0	28240	
5974	0	28604	
5975	0	29804	
5976	0	31592	
5977	0	32792	
5978	0	34128	
5979	0	34940	
5980	0	34740	
5981	0	33756	
5982	0	33956	
5983	0	35376	
5984	0	36168	
5985	0	35532	
5986	0	35560	
5987	0	36148	
5988	0	37412	
5989	0	35108	
5990	0	33596	
5991	0	29984	
5992	0	29436	
5993	0	31628	
5994	0	32486	
5995	0	32276	
5996	0	32260	
5997	0	33488	
5998	0	33276	
5999	0	34000	
6000	0	33708	
6001	0	32328	
6002	0	33117	
6003	0	32960	
6004	0	32768	
6005	0	32924	
6006	0	32008	
6007	0	29708	
6008	0	28152	
6009	0	28508	
6010	0	29541	
6011	0	31220	
6012	0	32092	
6013	0	33444	
6014	0	33469	
6015	0	34112	
6016	0	34532	
6017	0	35040	
6018	0	35072	
6019	0	36165	
6020	0	36312	
6021	0	34828	
6022	0	33108	
6023	0	29334	
6024	0	26756	
6025	0	26534	
6026	0	28676	
6027	0	31390	
6028	0	33216	
6029	0	34316	
6030	0	34480	
6031	0	35444	
6032	0	35348	
6033	0	36185	
6034	0	36836	
6035	0	34268	
6036	0	32792	
6037	0	31976	
6038	0	32396	
6039	0	32324	
6040	0	33460	
6041	0	32772	
6042	0	30720	
6043	0	31012	
6044	0	30280	
6045	0	30016	
6046	0	32404	
6047	0	34189	
6048	0	34628	
6049	0	34740	
6050	0	34360	
6051	0	33944	
6052	0	32852	
6053	0	33672	
6054	0	34252	
6055	0	34156	
6056	0	32620	
6057	0	30508	
6058	0	28385	
6059	0	28892	
6060	0	30652	
6061	0	31756	
6062	0	34112	
6063	0	35520	
6064	0	35576	
6065	0	34277	
6066	0	33701	
6067	0	33620	
6068	0	34004	
6069	0	34053	
6070	0	33380	
6071	0	32396	
6072	0	32016	
6073	0	32812	
6074	0	31802	
6075	0	30664	
6076	0	29640	
6077	0	29780	
6078	0	30104	
6079	0	28676	
6080	0	27488	
6081	0	29012	
6082	0	32326	
6083	0	35864	
6084	0	37988	
6085	0	36208	
6086	0	33588	
6087	0	30556	
6088	0	29852	
6089	0	32292	
6090	0	34524	
6091	0	35876	
6092	0	37381	
6093	0	37945	
6094	0	38032	
6095	0	36280	
6096	0	36028	
6097	0	35404	
6098	0	34344	
6099	0	33440	
6100	0	32332	
6101	0	31196	
6102	0	31032	
6103	0	30804	
6104	0	30460	
6105	0	29588	
6106	0	27990	
6107	0	26984	
6108	0	27860	
6109	0	30084	
6110	0	32100	
6111	0	32821	
6112	0	32408	
6113	0	33224	
6114	0	35244	
6115	0	36564	
6116	0	36716	
6117	0	35860	
6118	0	35028	
6119	0	34124	
6120	0	33232	
6121	0	32448	
6122	0	31092	
6123	0	30964	
6124	0	31326	
6125	0	31920	
6126	0	32741	
6127	0	33088	
6128	0	33564	
6129	0	34628	
6130	0	34636	
6131	0	33700	
6132	0	33180	
6133	0	32732	
6134	0	32504	
6135	0	32638	
6136	0	31808	
6137	0	30776	
6138	0	31040	
6139	0	31300	
6140	0	30545	
6141	0	28556	
6142	0	28976	
6143	0	30500	
6144	0	31940	
6145	0	33968	
6146	0	35052	
6147	0	35432	
6148	0	36160	
6149	0	35936	
6150	0	35356	
6151	0	34840	
6152	0	32092	
6153	0	29968	
6154	0	29392	
6155	0	30276	
6156	0	30940	
6157	0	31548	
6158	0	34010	
6159	0	35876	
6160	0	36584	
6161	0	36944	
6162	0	38068	
6163	0	37156	
6164	0	33316	
6165	0	28657	
6166	0	25244	
6167	0	26162	
6168	0	29204	
6169	0	30120	
6170	0	30788	
6171	0	32080	
6172	0	34045	
6173	0	35532	
6174	0	37028	
6175	0	38944	
6176	0	39180	
6177	0	37446	
6178	0	37376	
6179	0	34148	
6180	0	31296	
6181	0	29601	
6182	0	30296	
6183	0	30696	
6184	0	30576	
6185	0	31732	
6186	0	32337	
6187	0	33965	
6188	0	34764	
6189	0	33528	
6190	0	33260	
6191	0	32848	
6192	0	31116	
6193	0	30377	
6194	0	30196	
6195	0	29964	
6196	0	29388	
6197	0	29736	
6198	0	30332	
6199	0	31500	
6200	0	32064	
6201	0	33344	
6202	0	34824	
6203	0	34525	
6204	0	33704	
6205	0	33280	
6206	0	33208	
6207	0	32288	
6208	0	33100	
6209	0	33928	
6210	0	34212	
6211	0	34614	
6212	0	34600	
6213	0	34480	
6214	0	33644	
6215	0	33398	
6216	0	33232	
6217	0	32548	
6218	0	31832	
6219	0	29900	
6220	0	28700	
6221	0	29280	
6222	0	30316	
6223	0	31744	
6224	0	33524	
6225	0	33720	
6226	0	32661	
6227	0	33526	
6228	0	33708	
6229	0	33908	
6230	0	34656	
6231	0	36964	
6232	0	38484	
6233	0	36032	
6234	0	31644	
6235	0	30484	
6236	0	30500	
6237	0	31522	
6238	0	34556	
6239	0	34288	
6240	0	34504	
6241	0	34382	
6242	0	33605	
6243	0	31844	
6244	0	29900	
6245	0	28725	
6246	0	29368	
6247	0	30934	
6248	0	30652	
6249	0	30378	
6250	0	30948	
6251	0	30828	
6252	0	32756	
6253	0	34148	
6254	0	35148	
6255	0	35544	
6256	0	36020	
6257	0	36404	
6258	0	36092	
6259	0	34740	
6260	0	32316	
6261	0	30524	
6262	0	30896	
6263	0	32216	
6264	0	33564	
6265	0	34084	
6266	0	34636	
6267	0	34304	
6268	0	33692	
6269	0	31313	
6270	0	30188	
6271	0	30544	
6272	0	31232	
6273	0	31704	
6274	0	32508	
6275	0	33033	
6276	0	33900	
6277	0	34561	
6278	0	34244	
6279	0	33900	
6280	0	34212	
6281	0	33964	
6282	0	32884	
6283	0	32068	
6284	0	31952	
6285	0	31564	
6286	0	30772	
6287	0	30384	
6288	0	31236	
6289	0	31277	
6290	0	29882	
6291	0	29168	
6292	0	29404	
6293	0	30148	
6294	0	31768	
6295	0	31856	
6296	0	33152	
6297	0	34832	
6298	0	35808	
6299	0	37264	
6300	0	36476	
6301	0	35132	
6302	0	34144	
6303	0	31416	
6304	0	29496	
6305	0	31364	
6306	0	33382	
6307	0	34444	
6308	0	35436	
6309	0	35700	
6310	0	36276	
6311	0	36228	
6312	0	34732	
6313	0	34468	
6314	0	33020	
6315	0	32300	
6316	0	32780	
6317	0	32928	
6318	0	31824	
6319	0	29881	
6320	0	28852	
6321	0	28796	
6322	0	29288	
6323	0	30776	
6324	0	32142	
6325	0	33360	
6326	0	34168	
6327	0	33000	
6328	0	33201	
6329	0	33452	
6330	0	33518	
6331	0	33696	
6332	0	33068	
6333	0	33204	
6334	0	33480	
6335	0	33236	
6336	0	32952	
6337	0	33896	
6338	0	33736	
6339	0	32936	
6340	0	33660	
6341	0	33972	
6342	0	33660	
6343	0	32988	
6344	0	32544	
6345	0	32404	
6346	0	32176	
6347	0	31269	
6348	0	30668	
6349	0	30952	
6350	0	31188	
6351	0	31581	
6352	0	32345	
6353	0	32932	
6354	0	33629	
6355	0	32790	
6356	0	32109	
6357	0	32192	
6358	0	32300	
6359	0	33328	
6360	0	32992	
6361	0	31544	
6362	0	31216	
6363	0	30925	
6364	0	31840	
6365	0	31536	
6366	0	31500	
6367	0	32650	
6368	0	33014	
6369	0	32801	
6370	0	31632	
6371	0	32255	
6372	0	32780	
6373	0	34112	
6374	0	35488	
6375	0	37484	
6376	0	37282	
6377	0	37568	
6378	0	38696	
6379	0	38064	
6380	0	37740	
6381	0	36740	
6382	0	34616	
6383	0	31646	
6384	0	30204	
6385	0	29340	
6386	0	28980	
6387	0	29428	
6388	0	29278	
6389	0	29598	
6390	0	30804	
6391	0	31064	
6392	0	30312	
6393	0	30380	
6394	0	30504	
6395	0	31576	
6396	0	32888	
6397	0	33543	
6398	0	32568	
6399	0	31996	
6400	0	32101	
6401	0	32352	
6402	0	33124	
6403	0	33480	
6404	0	33172	
6405	0	33248	
6406	0	33441	
6407	0	33212	
6408	0	32662	
6409	0	32924	
6410	0	33428	
6411	0	33780	
6412	0	33640	
6413	0	34236	
6414	0	34120	
6415	0	34036	
6416	0	33374	
6417	0	32278	
6418	0	31940	
6419	0	32760	
6420	0	33248	
6421	0	33084	
6422	0	32854	
6423	0	32976	
6424	0	33388	
6425	0	33445	
6426	0	33284	
6427	0	32972	
6428	0	32277	
6429	0	31928	
6430	0	31668	
6431	0	31336	
6432	0	31401	
6433	0	31624	
6434	0	31616	
6435	0	31620	
6436	0	32004	
6437	0	32848	
6438	0	33556	
6439	0	33752	
6440	0	33828	
6441	0	33032	
6442	0	32196	
6443	0	32316	
6444	0	31680	
6445	0	31288	
6446	0	31753	
6447	0	32520	
6448	0	34016	
6449	0	35164	
6450	0	35936	
6451	0	36620	
6452	0	35804	
6453	0	33744	
6454	0	32456	
6455	0	31196	
6456	0	31076	
6457	0	31836	
6458	0	32632	
6459	0	33237	
6460	0	33124	
6461	0	32736	
6462	0	32949	
6463	0	32756	
6464	0	32732	
6465	0	33024	
6466	0	33380	
6467	0	32348	
6468	0	32213	
6469	0	32382	
6470	0	32184	
6471	0	32464	
6472	0	32348	
6473	0	32272	
6474	0	32401	
6475	0	32548	
6476	0	32856	
6477	0	32728	
6478	0	32608	
6479	0	32772	
6480	0	32900	
6481	0	33012	
6482	0	32616	
6483	0	32248	
6484	0	32172	
6485	0	32452	
6486	0	32472	
6487	0	32552	
6488	0	32788	
6489	0	33172	
6490	0	34184	
6491	0	33924	
6492	0	32576	
6493	0	31444	
6494	0	31076	
6495	0	31406	
6496	0	32008	
6497	0	32512	
6498	0	32616	
6499	0	32926	
6500	0	33167	
6501	0	33264	
6502	0	33296	
6503	0	33304	
6504	0	33512	
6505	0	33476	
6506	0	33279	
6507	0	32928	
6508	0	32764	
6509	0	32879	
6510	0	32977	
6511	0	32772	
6512	0	32780	
6513	0	32832	
6514	0	32944	
6515	0	33030	
6516	0	32668	
6517	0	32288	
6518	0	32316	
6519	0	32516	
6520	0	32688	
6521	0	32864	
6522	0	32824	
6523	0	33124	
6524	0	33308	
6525	0	33044	
6526	0	32914	
6527	0	32892	
6528	0	32876	
6529	0	32800	
6530	0	32816	
6531	0	32608	
6532	0	32496	
6533	0	32580	
6534	0	32548	
6535	0	32508	
6536	0	32505	
6537	0	32568	
6538	0	32620	
6539	0	32804	
6540	0	33024	
6541	0	33072	
6542	0	33076	
6543	0	32864	
6544	0	32994	
6545	0	32980	
6546	0	32596	
6547	0	32420	
6548	0	32413	
6549	0	32460	
6550	0	32596	
6551	0	32586	
6552	0	32640	
6553	0	32832	
6554	0	32980	
6555	0	32740	
6556	0	32648	
6557	0	33004	
6558	0	32930	
6559	0	32861	
6560	0	33132	
6561	0	33530	
6562	0	33553	
6563	0	33508	
6564	0	33508	
6565	0	32908	
6566	0	32668	
6567	0	32600	
6568	0	32358	
6569	0	32192	
6570	0	31968	
6571	0	32125	
6572	0	32348	
6573	0	32517	
6574	0	32613	
6575	0	32976	
6576	0	33036	
6577	0	32694	
6578	0	32844	
6579	0	32724	
6580	0	32296	
6581	0	32624	
6582	0	32384	
6583	0	32552	
6584	0	33137	
6585	0	33436	
6586	0	33670	
6587	0	33204	
6588	0	33388	
6589	0	33860	
6590	0	33748	
6591	0	33132	
6592	0	32444	
6593	0	32180	
6594	0	32160	
6595	0	32352	
6596	0	32160	
6597	0	31740	
6598	0	31808	
6599	0	31892	
6600	0	32316	
6601	0	32840	
6602	0	33036	
6603	0	32456	
6604	0	32112	
6605	0	31920	
6606	0	31746	
6607	0	32231	
6608	0	33116	
6609	0	33736	
6610	0	34364	
6611	0	34621	
6612	0	34536	
6613	0	34372	
6614	0	34182	
6615	0	33320	
6616	0	32652	
6617	0	32448	
6618	0	32676	
6619	0	32648	
6620	0	32384	
6621	0	31948	
6622	0	31897	
6623	0	31568	
6624	0	31728	
6625	0	31804	
6626	0	32096	
6627	0	32064	
6628	0	32316	
6629	0	32756	
6630	0	33252	
6631	0	33760	
6632	0	33720	
6633	0	33850	
6634	0	34028	
6635	0	33893	
6636	0	33516	
6637	0	33008	
6638	0	32752	
6639	0	32380	
6640	0	32224	
6641	0	32164	
6642	0	32384	
6643	0	32412	
6644	0	32382	
6645	0	32485	
6646	0	32536	
6647	0	32492	
6648	0	32568	
6649	0	32524	
6650	0	32540	
6651	0	32184	
6652	0	32132	
6653	0	32148	
6654	0	32204	
6655	0	32296	
6656	0	32432	
6657	0	32942	
6658	0	33221	
6659	0	33744	
6660	0	34052	
6661	0	33620	
6662	0	33381	
6663	0	33677	
6664	0	33480	
6665	0	33124	
6666	0	32708	
6667	0	32464	
6668	0	32368	
6669	0	32488	
6670	0	32462	
6671	0	32824	
6672	0	33124	
6673	0	32920	
6674	0	32904	
6675	0	33116	
6676	0	32848	
6677	0	31861	
6678	0	31624	
6679	0	31360	
6680	0	31328	
6681	0	31760	
6682	0	32776	
6683	0	33140	
6684	0	33300	
6685	0	33388	
6686	0	33604	
6687	0	33424	
6688	0	33308	
6689	0	33264	
6690	0	33132	
6691	0	33460	
6692	0	33448	
6693	0	33388	
6694	0	33360	
6695	0	33245	
6696	0	33157	
6697	0	32716	
6698	0	32172	
6699	0	31432	
6700	0	31081	
6701	0	31348	
6702	0	31788	
6703	0	32356	
6704	0	32894	
6705	0	33372	
6706	0	33860	
6707	0	33960	
6708	0	33844	
6709	0	33224	
6710	0	32692	
6711	0	32837	
6712	0	33160	
6713	0	33028	
6714	0	32684	
6715	0	32480	
6716	0	32460	
6717	0	32408	
6718	0	32468	
6719	0	32396	
6720	0	32356	
6721	0	32300	
6722	0	32308	
6723	0	32312	
6724	0	32252	
6725	0	32188	
6726	0	31982	
6727	0	32232	
6728	0	32708	
6729	0	33004	
6730	0	33116	
6731	0	33040	
6732	0	33382	
6733	0	33472	
6734	0	33744	
6735	0	33440	
6736	0	33884	
6737	0	33876	
6738	0	33892	
6739	0	33652	
6740	0	33159	
6741	0	32800	
6742	0	32497	
6743	0	32220	
6744	0	32165	
6745	0	32233	
6746	0	32428	
6747	0	32288	
6748	0	32184	
6749	0	32204	
6750	0	32156	
6751	0	32228	
6752	0	32432	
6753	0	32652	
6754	0	32724	
6755	0	32720	
6756	0	32732	
6757	0	32700	
6758	0	32912	
6759	0	33120	
6760	0	33254	
6761	0	33118	
6762	0	32668	
6763	0	32128	
6764	0	31876	
6765	0	32000	
6766	0	32464	
6767	0	32924	
6768	0	33484	
6769	0	33853	
6770	0	33952	
6771	0	33212	
6772	0	32752	
6773	0	32670	
6774	0	33092	
6775	0	33280	
6776	0	33036	
6777	0	33252	
6778	0	33334	
6779	0	32524	
6780	0	32420	
6781	0	32552	
6782	0	32448	
6783	0	32444	
6784	0	32516	
6785	0	32664	
6786	0	32633	
6787	0	32716	
6788	0	32844	
6789	0	32780	
6790	0	32784	
6791	0	32637	
6792	0	32504	
6793	0	32537	
6794	0	32629	
6795	0	32704	
6796	0	32721	
6797	0	32704	
6798	0	32684	
6799	0	32844	
6800	0	32860	
6801	0	32688	
6802	0	32684	
6803	0	32728	
6804	0	32776	
6805	0	32840	
6806	0	32916	
6807	0	32860	
6808	0	32812	
6809	0	32828	
6810	0	32872	
6811	0	32868	
6812	0	32804	
6813	0	32904	
6814	0	32860	
6815	0	32780	
6816	0	32660	
6817	0	32604	
6818	0	32648	
6819	0	32636	
6820	0	32536	
6821	0	32541	
6822	0	32556	
6823	0	32678	
6824	0	32624	
6825	0	32436	
6826	0	32521	
6827	0	32876	
6828	0	32880	
6829	0	32964	
6830	0	32648	
6831	0	32876	
6832	0	32836	
6833	0	32984	
6834	0	33020	
6835	0	33084	
6836	0	33216	
6837	0	33200	
6838	0	33145	
6839	0	33252	
6840	0	33336	
6841	0	33644	
6842	0	33284	
6843	0	32704	
6844	0	32156	
6845	0	32188	
6846	0	32377	
6847	0	32572	
6848	0	32784	
6849	0	32864	
6850	0	33097	
6851	0	33264	
6852	0	33068	
6853	0	33104	
6854	0	32976	
6855	0	32940	
6856	0	32544	
6857	0	32448	
6858	0	32340	
6859	0	32424	
6860	0	32380	
6861	0	32308	
6862	0	32400	
6863	0	32384	
6864	0	32522	
6865	0	32637	
6866	0	32760	
6867	0	32768	
6868	0	32780	
6869	0	32888	
6870	0	32940	
6871	0	32816	
6872	0	32792	
6873	0	32863	
6874	0	33032	
6875	0	32900	
6876	0	32784	
6877	0	32724	
6878	0	32661	
6879	0	32696	
6880	0	32685	
6881	0	32788	
6882	0	32768	
6883	0	32726	
6884	0	32856	
6885	0	32628	
6886	0	32700	
6887	0	32854	
6888	0	32964	
6889	0	33053	
6890	0	33024	
6891	0	32844	
6892	0	32745	
6893	0	32992	
6894	0	32892	
6895	0	32741	
6896	0	32516	
6897	0	32388	
6898	0	32600	
6899	0	32612	
6900	0	32628	
6901	0	32656	
6902	0	32732	
6903	0	32857	
6904	0	32960	
6905	0	32936	
6906	0	32996	
6907	0	33040	
6908	0	32924	
6909	0	32992	
6910	0	32928	
6911	0	32868	
6912	0	32940	
6913	0	32900	
6914	0	32862	
6915	0	32892	
6916	0	32794	
6917	0	32578	
6918	0	32776	
6919	0	32749	
6920	0	32561	
6921	0	32444	
6922	0	32414	
6923	0	32546	
6924	0	32650	
6925	0	32832	
6926	0	32928	
6927	0	32856	
6928	0	32684	
6929	0	32708	
6930	0	32674	
6931	0	32812	
6932	0	32868	
6933	0	32916	
6934	0	32816	
6935	0	32892	
6936	0	32908	
6937	0	32788	
6938	0	32716	
6939	0	32624	
6940	0	32757	
6941	0	32824	
6942	0	32916	
6943	0	32864	
6944	0	32868	
6945	0	32820	
6946	0	32820	
6947	0	32752	
6948	0	32644	
6949	0	32680	
6950	0	32740	
6951	0	32812	
6952	0	32768	
6953	0	32812	
6954	0	32876	
6955	0	32817	
6956	0	32668	
6957	0	32608	
6958	0	32760	
6959	0	32728	
6960	0	32620	
6961	0	32669	
6962	0	32669	
6963	0	32784	
6964	0	32869	
6965	0	32860	
6966	0	32856	
6967	0	32804	
6968	0	32836	
6969	0	32780	
6970	0	32884	
6971	0	32776	
6972	0	32612	
6973	0	32466	
6974	0	32560	
6975	0	32600	
6976	0	32652	
6977	0	32848	
6978	0	32944	
6979	0	32998	
6980	0	33160	
6981	0	33176	
6982	0	33252	
6983	0	33068	
6984	0	32768	
6985	0	32644	
6986	0	32616	
6987	0	32724	
6988	0	32728	
6989	0	32652	
6990	0	32680	
6991	0	32656	
6992	0	32800	
6993	0	32933	
6994	0	32788	
6995	0	32792	
6996	0	32860	
6997	0	32720	
6998	0	32720	
6999	0	32668	
7000	0	32552	
7001	0	32552	
7002	0	32650	
7003	0	32720	
7004	0	32829	
7005	0	32948	
7006	0	32696	
7007	0	32628	
7008	0	32601	
7009	0	32708	
7010	0	32824	
7011	0	33028	
7012	0	33040	
7013	0	33044	
7014	0	33073	
7015	0	33020	
7016	0	32792	
7017	0	32796	
7018	0	32837	
7019	0	32836	
7020	0	32836	
7021	0	32669	
7022	0	32704	
7023	0	32696	
7024	0	32788	
7025	0	32644	
7026	0	32624	
7027	0	32789	
7028	0	32900	
7029	0	32912	
7030	0	32760	
7031	0	32680	
7032	0	32599	
7033	0	32740	
7034	0	32744	
7035	0	32772	
7036	0	32692	
7037	0	32677	
7038	0	32692	
7039	0	32677	
7040	0	32620	
7041	0	32606	
7042	0	32684	
7043	0	32732	
7044	0	32790	
7045	0	32860	
7046	0	32862	
7047	0	32920	
7048	0	32912	
7049	0	32916	
7050	0	32836	
7051	0	32972	
7052	0	32856	
7053	0	32820	
7054	0	32917	
7055	0	32808	
7056	0	32764	
7057	0	32596	
7058	0	32580	
7059	0	32664	
7060	0	32600	
7061	0	32640	
7062	0	32752	
7063	0	32760	
7064	0	32856	
7065	0	32732	
7066	0	32908	
7067	0	32992	
7068	0	33040	
7069	0	33020	
7070	0	32812	
7071	0	32620	
7072	0	32724	
7073	0	32856	
7074	0	32832	
7075	0	32764	
7076	0	32752	
7077	0	32704	
7078	0	32732	
7079	0	32665	
7080	0	32580	
7081	0	32608	
7082	0	32710	
7083	0	32732	
7084	0	32766	
7085	0	32837	
7086	0	32775	
7087	0	32828	
7088	0	32888	
7089	0	32921	
7090	0	33120	
7091	0	32929	
7092	0	32860	
7093	0	32632	
7094	0	32500	
7095	0	32472	
7096	0	32560	
7097	0	32716	
7098	0	32812	
7099	0	32852	
7100	0	32708	
7101	0	32592	
7102	0	32672	
7103	0	32952	
7104	0	32948	
7105	0	32871	
7106	0	32868	
7107	0	32762	
7108	0	32564	
7109	0	32647	
7110	0	32772	
7111	0	32868	
7112	0	32888	
7113	0	32980	
7114	0	32996	
7115	0	32920	
7116	0	32940	
7117	0	32836	
7118	0	32748	
7119	0	32648	
7120	0	32644	
7121	0	32704	
7122	0	32640	
7123	0	32801	
7124	0	32936	
7125	0	32772	
7126	0	32762	
7127	0	32820	
7128	0	32804	
7129	0	32704	
7130	0	32748	
7131	0	32769	
7132	0	32752	
7133	0	32776	
7134	0	32928	
7135	0	32908	
7136	0	32880	
7137	0	32817	
7138	0	32644	
7139	0	32520	
7140	0	32580	
7141	0	32588	
7142	0	32572	
7143	0	32712	
7144	0	32815	
7145	0	32912	
7146	0	32800	
7147	0	32916	
7148	0	32996	
7149	0	33084	
7150	0	32944	
7151	0	32856	
7152	0	32688	
7153	0	32784	
7154	0	32737	
7155	0	32780	
7156	0	32845	
7157	0	32792	
7158	0	32796	
7159	0	32796	
7160	0	32622	
7161	0	32564	
7162	0	32572	
7163	0	32668	
7164	0	32805	
7165	0	32852	
7166	0	32916	
7167	0	32844	
7168	0	32808	
7169	0	32645	
7170	0	32752	
7171	0	32836	
7172	0	32852	
7173	0	32909	
7174	0	32836	
7175	0	32788	
7176	0	32788	
7177	0	32692	
7178	0	32680	
7179	0	32756	
7180	0	32601	
7181	0	32717	
7182	0	32740	
7183	0	32740	
7184	0	32804	
7185	0	32756	
7186	0	32817	
7187	0	32828	
7188	0	32840	
7189	0	33020	
7190	0	32940	
7191	0	32992	
7192	0	32776	
7193	0	32760	
7194	0	32856	
7195	0	32756	
7196	0	32892	
7197	0	32655	
7198	0	32572	
7199	0	32444	
7200	0	32592	
7201	0	32684	
7202	0	32728	
7203	0	32742	
7204	0	32766	
7205	0	32885	
7206	0	32932	
7207	0	32964	
7208	0	32872	
7209	0	32800	
7210	0	32844	
7211	0	32760	
7212	0	32772	
7213	0	32876	
7214	0	32840	
7215	0	32816	
7216	0	32785	
7217	0	32688	
7218	0	32724	
7219	0	32688	
7220	0	32622	
7221	0	32596	
7222	0	32580	
7223	0	32776	
7224	0	32814	
7225	0	32868	
7226	0	32756	
7227	0	32760	
7228	0	32792	
7229	0	32924	
7230	0	32881	
7231	0	32908	
7232	0	32880	
7233	0	32845	
7234	0	32868	
7235	0	32780	
7236	0	32748	
7237	0	32736	
7238	0	32764	
7239	0	32670	
7240	0	32580	
7241	0	32736	
7242	0	32872	
7243	0	32884	
7244	0	32852	
7245	0	32724	
7246	0	32633	
7247	0	32712	
7248	0	32756	
7249	0	32848	
7250	0	32944	
7251	0	32820	
7252	0	32796	
7253	0	32808	
7254	0	32905	
7255	0	32834	
7256	0	32724	
7257	0	32656	
7258	0	32680	
7259	0	32696	
7260	0	32616	
7261	0	32712	
7262	0	32740	
7263	0	32758	
7264	0	32820	
7265	0	32960	
7266	0	32836	
7267	0	32824	
7268	0	32776	
7269	0	32801	
7270	0	32960	
7271	0	32888	
7272	0	32964	
7273	0	32968	
7274	0	32770	
7275	0	32697	
7276	0	32688	
7277	0	32644	
7278	0	32776	
7279	0	32836	
7280	0	32716	
7281	0	32556	
7282	0	32637	
7283	0	32636	
7284	0	32712	
7285	0	32857	
7286	0	32838	
7287	0	32870	
7288	0	32844	
7289	0	32886	
7290	0	32880	
7291	0	32900	
7292	0	32780	
7293	0	32792	
7294	0	32796	
7295	0	32804	
7296	0	32760	
7297	0	32729	
7298	0	32696	
7299	0	32732	
7300	0	32684	
7301	0	32596	
7302	0	32700	
7303	0	32773	
7304	0	32814	
7305	0	32932	
7306	0	32853	
7307	0	32952	
7308	0	32752	
7309	0	32720	
7310	0	32640	
7311	0	32696	
7312	0	32812	
7313	0	32916	
7314	0	32917	
7315	0	32892	
7316	0	32788	
7317	0	32744	
7318	0	32632	
7319	0	32645	
7320	0	32644	
7321	0	32735	
7322	0	32784	
7323	0	32784	
7324	0	32812	
7325	0	32828	
7326	0	32754	
7327	0	32868	
7328	0	32836	
7329	0	32912	
7330	0	32900	
7331	0	32885	
7332	0	32825	
7333	0	32832	
7334	0	32764	
7335	0	32764	
7336	0	32736	
7337	0	32676	
7338	0	32712	
7339	0	32620	
7340	0	32606	
7341	0	32664	
7342	0	32677	
7343	0	32708	
7344	0	32806	
7345	0	32848	
7346	0	32881	
7347	0	32900	
7348	0	32784	
7349	0	32790	
7350	0	32852	
7351	0	32886	
7352	0	32856	
7353	0	33040	
7354	0	32860	
7355	0	32792	
7356	0	32629	
7357	0	32736	
7358	0	32784	
7359	0	32645	
7360	0	32692	
7361	0	32844	
7362	0	32684	
7363	0	32596	
7364	0	32712	
7365	0	32782	
7366	0	32980	
7367	0	32820	
7368	0	32668	
7369	0	32597	
7370	0	32711	
7371	0	32864	
7372	0	32857	
7373	0	32976	
7374	0	32878	
7375	0	32848	
7376	0	32848	
7377	0	32804	
7378	0	32716	
7379	0	32664	
7380	0	32448	
7381	0	32500	
7382	0	32646	
7383	0	32725	
7384	0	32912	
7385	0	32916	
7386	0	32856	
7387	0	32936	
7388	0	32964	
7389	0	32888	
7390	0	32808	
7391	0	32837	
7392	0	32760	
7393	0	32892	
7394	0	32824	
7395	0	32704	
7396	0	32676	
7397	0	32700	
7398	0	32724	
7399	0	32680	
7400	0	32684	
7401	0	32680	
7402	0	32776	
7403	0	32784	
7404	0	32772	
7405	0	32804	
7406	0	32869	
7407	0	32928	
7408	0	32816	
7409	0	32828	
7410	0	32920	
7411	0	32856	
7412	0	32830	
7413	0	32832	
7414	0	32856	
7415	0	32772	
7416	0	32788	
7417	0	32652	
7418	0	32664	
7419	0	32684	
7420	0	32676	
7421	0	32668	
7422	0	32674	
7423	0	32752	
7424	0	32824	
7425	0	32821	
7426	0	32824	
7427	0	32784	
7428	0	32776	
7429	0	32788	
7430	0	32788	
7431	0	32849	
7432	0	32885	
7433	0	32917	
7434	0	32824	
7435	0	32804	
7436	0	32740	
7437	0	32776	
7438	0	32660	
7439	0	32700	
7440	0	32622	
7441	0	32560	
7442	0	32620	
7443	0	32576	
7444	0	32800	
7445	0	32912	
7446	0	32916	
7447	0	32900	
7448	0	32820	
7449	0	32752	
7450	0	32950	
7451	0	32789	
7452	0	32809	
7453	0	32789	
7454	0	32840	
7455	0	32756	
7456	0	32728	
7457	0	32670	
7458	0	32824	
7459	0	32900	
7460	0	32612	
7461	0	32544	
7462	0	32520	
7463	0	32692	
7464	0	32956	
7465	0	32929	
7466	0	32788	
7467	0	32852	
7468	0	32936	
7469	0	32860	
7470	0	32732	
7471	0	32788	
7472	0	32752	
7473	0	32830	
7474	0	32908	
7475	0	32884	
7476	0	32776	
7477	0	32748	
7478	0	32612	
7479	0	32646	
7480	0	32632	
7481	0	32688	
7482	0	32784	
7483	0	32781	
7484	0	32812	
7485	0	32826	
7486	0	32856	
7487	0	32844	
7488	0	32860	
7489	0	32876	
7490	0	32868	
7491	0	32876	
7492	0	32685	
7493	0	32796	
7494	0	32756	
7495	0	32868	
7496	0	32732	
7497	0	32720	
7498	0	32693	
7499	0	32636	
7500	0	32657	
7501	0	32672	
7502	0	32744	
7503	0	32737	
7504	0	32832	
7505	0	32911	
7506	0	32904	
7507	0	32925	
7508	0	32812	
7509	0	32844	
7510	0	32800	
7511	0	32792	
7512	0	32804	
7513	0	32848	
7514	0	32820	
7515	0	32804	
7516	0	32748	
7517	0	32748	
7518	0	32760	
7519	0	32612	
7520	0	32644	
7521	0	32605	
7522	0	32698	
7523	0	32769	
7524	0	32884	
7525	0	32962	
7526	0	33020	
7527	0	32868	
7528	0	32712	
7529	0	32732	
7530	0	32756	
7531	0	32778	
7532	0	32832	
7533	0	32856	
7534	0	32942	
7535	0	32844	
7536	0	32700	
7537	0	32704	
7538	0	32632	
7539	0	32640	
7540	0	32672	
7541	0	32676	
7542	0	32732	
7543	0	32804	
7544	0	32820	
7545	0	32831	
7546	0	32756	
7547	0	32732	
7548	0	32893	
7549	0	32856	
7550	0	32816	
7551	0	32782	
7552	0	32832	
7553	0	32892	
7554	0	32872	
7555	0	32792	
7556	0	32676	
7557	0	32718	
7558	0	32768	
7559	0	32864	
7560	0	32816	
7561	0	32840	
7562	0	32880	
7563	0	32761	
7564	0	32792	
7565	0	32676	
7566	0	32704	
7567	0	32704	
7568	0	32588	
7569	0	32708	
7570	0	32840	
7571	0	32860	
7572	0	32988	
7573	0	32924	
7574	0	32901	
7575	0	32780	
7576	0	32736	
7577	0	32708	
7578	0	32768	
7579	0	32748	
7580	0	32812	
7581	0	32668	
7582	0	32692	
7583	0	32628	
7584	0	32740	
7585	0	32832	
7586	0	32866	
7587	0	32852	
7588	0	32778	
7589	0	32892	
7590	0	32828	
7591	0	32841	
7592	0	32873	
7593	0	32900	
7594	0	32849	
7595	0	32772	
7596	0	32685	
7597	0	32624	
7598	0	32656	
7599	0	32704	
7600	0	32648	
7601	0	32676	
7602	0	32744	
7603	0	32733	
7604	0	32940	
7605	0	32940	
7606	0	32976	
7607	0	32808	
7608	0	32757	
7609	0	32837	
7610	0	32792	
7611	0	32740	
7612	0	32612	
7613	0	32781	
7614	0	32825	
7615	0	32845	
7616	0	32764	
7617	0	32709	
7618	0	32754	
7619	0	32824	
7620	0	32660	
7621	0	32669	
7622	0	32617	
7623	0	32716	
7624	0	32796	
7625	0	32792	
7626	0	32832	
7627	0	32812	
7628	0	32857	
7629	0	32856	
7630	0	32896	
7631	0	32812	
7632	0	32776	
7633	0	32864	
7634	0	32812	
7635	0	32788	
7636	0	32804	
7637	0	32720	
7638	0	32768	
7639	0	32680	
7640	0	32588	
7641	0	32621	
7642	0	32728	
7643	0	32692	
7644	0	32824	
7645	0	32864	
7646	0	32884	
7647	0	32856	
7648	0	32872	
7649	0	32926	
7650	0	32920	
7651	0	32952	
7652	0	32804	
7653	0	32672	
7654	0	32708	
7655	0	32740	
7656	0	32772	
7657	0	32677	
7658	0	32652	
7659	0	32696	
7660	0	32644	
7661	0	32652	
7662	0	32752	
7663	0	32792	
7664	0	32772	
7665	0	32844	
7666	0	32868	
7667	0	32877	
7668	0	32916	
7669	0	32804	
7670	0	32812	
7671	0	32840	
7672	0	32852	
7673	0	32900	
7674	0	32852	
7675	0	32824	
7676	0	32720	
7677	0	32728	
7678	0	32692	
7679	0	32596	
7680	0	32604	
7681	0	32708	
7682	0	32620	
7683	0	32580	
7684	0	32672	
7685	0	32704	
7686	0	32808	
7687	0	32820	
7688	0	32841	
7689	0	32880	
7690	0	32868	
7691	0	32848	
7692	0	32812	
7693	0	32878	
7694	0	32817	
7695	0	32820	
7696	0	32800	
7697	0	32676	
7698	0	32673	
7699	0	32660	
7700	0	32580	
7701	0	32525	
7702	0	32684	
7703	0	32784	
7704	0	32849	
7705	0	32836	
7706	0	32808	
7707	0	32844	
7708	0	32873	
7709	0	32988	
7710	0	32904	
7711	0	32917	
7712	0	32866	
7713	0	32892	
7714	0	32968	
7715	0	32904	
7716	0	32925	
7717	0	32684	
7718	0	32720	
7719	0	32604	
7720	0	32568	
7721	0	32541	
7722	0	32678	
7723	0	32836	
7724	0	32852	
7725	0	32824	
7726	0	32844	
7727	0	32852	
7728	0	32876	
7729	0	32749	
7730	0	32812	
7731	0	32816	
7732	0	32940	
7733	0	32918	
7734	0	32872	
7735	0	32772	
7736	0	32756	
7737	0	32669	
7738	0	32693	
7739	0	32670	
7740	0	32628	
7741	0	32680	
7742	0	32632	
7743	0	32632	
7744	0	32742	
7745	0	32828	
7746	0	32836	
7747	0	32857	
7748	0	32892	
7749	0	32924	
7750	0	32988	
7751	0	32944	
7752	0	33064	
7753	0	32880	
7754	0	32852	
7755	0	32816	
7756	0	32600	
7757	0	32463	
7758	0	32558	
7759	0	32672	
7760	0	32612	
7761	0	32628	
7762	0	32684	
7763	0	32750	
7764	0	32804	
7765	0	32828	
7766	0	32829	
7767	0	32842	
7768	0	32872	
7769	0	32872	
7770	0	32820	
7771	0	32812	
7772	0	32904	
7773	0	32884	
7774	0	32908	
7775	0	32900	
7776	0	32824	
7777	0	32748	
7778	0	32684	
7779	0	32640	
7780	0	32644	
7781	0	32622	
7782	0	32676	
7783	0	32692	
7784	0	32749	
7785	0	32924	
7786	0	32848	
7787	0	32865	
7788	0	32752	
7789	0	32708	
7790	0	32884	
7791	0	32948	
7792	0	32928	
7793	0	32852	
7794	0	32816	
7795	0	32800	
7796	0	32668	
7797	0	32668	
7798	0	32702	
7799	0	32716	
7800	0	32740	
7801	0	32636	
7802	0	32684	
7803	0	32724	
7804	0	32852	
7805	0	32896	
7806	0	32884	
7807	0	32860	
7808	0	32766	
7809	0	32712	
7810	0	32785	
7811	0	32832	
7812	0	32842	
7813	0	32892	
7814	0	33025	
7815	0	32972	
7816	0	32764	
7817	0	32680	
7818	0	32688	
7819	0	32716	
7820	0	32640	
7821	0	32704	
7822	0	32800	
7823	0	32720	
7824	0	32788	
7825	0	32636	
7826	0	32796	
7827	0	32792	
7828	0	32836	
7829	0	32896	
7830	0	32956	
7831	0	32800	
7832	0	32806	
7833	0	32748	
7834	0	32752	
7835	0	32833	
7836	0	32760	
7837	0	32694	
7838	0	32741	
7839	0	32776	
7840	0	32588	
7841	0	32588	
7842	0	32680	
7843	0	32768	
7844	0	32896	
7845	0	32800	
7846	0	32864	
7847	0	32796	
7848	0	32872	
7849	0	32760	
7850	0	32800	
7851	0	32848	
7852	0	32820	
7853	0	32912	
7854	0	32872	
7855	0	32808	
7856	0	32756	
7857	0	32736	
7858	0	32676	
7859	0	32696	
7860	0	32728	
7861	0	32630	
7862	0	32678	
7863	0	32712	
7864	0	32788	
7865	0	32820	
7866	0	32856	
7867	0	32844	
7868	0	32800	
7869	0	32720	
7870	0	32844	
7871	0	33101	
7872	0	33220	
7873	0	33168	
7874	0	32904	
7875	0	32492	
7876	0	32320	
7877	0	32384	
7878	0	32548	
7879	0	32712	
7880	0	32720	
7881	0	32756	
7882	0	32828	
7883	0	32786	
7884	0	32900	
7885	0	32916	
7886	0	32856	
7887	0	32820	
7888	0	32900	
7889	0	32845	
7890	0	32708	
7891	0	32720	
7892	0	32756	
7893	0	32856	
7894	0	32864	
7895	0	32840	
7896	0	32768	
7897	0	32700	
7898	0	32680	
7899	0	32680	
7900	0	32712	
7901	0	32676	
7902	0	32724	
7903	0	32792	
7904	0	32968	
7905	0	32960	
7906	0	32893	
7907	0	32764	
7908	0	32708	
7909	0	32768	
7910	0	32844	
7911	0	32872	
7912	0	32792	
7913	0	32704	
7914	0	32804	
7915	0	32823	
7916	0	32768	
7917	0	32757	
7918	0	32676	
7919	0	32709	
7920	0	32676	
7921	0	32662	
7922	0	32756	
7923	0	32680	
7924	0	32800	
7925	0	32838	
7926	0	32860	
7927	0	32860	
7928	0	32894	
7929	0	32840	
7930	0	32924	
7931	0	32904	
7932	0	32849	
7933	0	32764	
7934	0	32748	
7935	0	32732	
7936	0	32748	
7937	0	32648	
7938	0	32676	
7939	0	32720	
7940	0	32720	
7941	0	32704	
7942	0	32738	
7943	0	32804	
7944	0	32812	
7945	0	32980	
7946	0	32892	
7947	0	32772	
7948	0	32700	
7949	0	32721	
7950	0	32756	
7951	0	32790	
7952	0	32796	
7953	0	32849	
7954	0	32893	
7955	0	33012	
7956	0	32769	
7957	0	32720	
7958	0	32677	
7959	0	32684	
7960	0	32588	
7961	0	32676	
7962	0	32700	
7963	0	32777	
7964	0	32852	
7965	0	32892	
7966	0	32844	
7967	0	32840	
7968	0	32824	
7969	0	32764	
7970	0	32824	
7971	0	32840	
7972	0	32852	
7973	0	32892	
7974	0	32884	
7975	0	32857	
7976	0	32821	
7977	0	32841	
7978	0	32792	
7979	0	32740	
7980	0	32648	
7981	0	32784	
7982	0	32530	
7983	0	32524	
7984	0	32582	
7985	0	32696	
7986	0	32900	
7987	0	33068	
7988	0	32924	
7989	0	32780	
7990	0	32893	
7991	0	32864	
7992	0	32836	
7993	0	32772	
7994	0	32846	
7995	0	32748	
7996	0	32708	
7997	0	32740	
7998	0	32741	
7999	0	32770	
8000	0	32654	
8001	0	32736	
8002	0	32784	
8003	0	32681	
8004	0	32756	
8005	0	32825	
8006	0	32861	
8007	0	32901	
8008	0	32800	
8009	0	32792	
8010	0	32896	
8011	0	32869	
8012	0	32856	
8013	0	32924	
8014	0	32892	
8015	0	32800	
8016	0	32669	
8017	0	32510	
8018	0	32652	
8019	0	32762	
8020	0	32698	
8021	0	32719	
8022	0	32604	
8023	0	32768	
8024	0	32804	
8025	0	32815	
8026	0	32832	
8027	0	32832	
8028	0	32804	
8029	0	32880	
8030	0	32794	
8031	0	32828	
8032	0	32900	
8033	0	32940	
8034	0	32893	
8035	0	32868	
8036	0	32764	
8037	0	32704	
8038	0	32732	
8039	0	32733	
8040	0	32724	
8041	0	32560	
8042	0	32636	
8043	0	32753	
8044	0	32792	
8045	0	32832	
8046	0	32870	
8047	0	32736	
8048	0	32770	
8049	0	32936	
8050	0	32892	
8051	0	32876	
8052	0	32844	
8053	0	32740	
8054	0	32848	
8055	0	32812	
8056	0	32742	
8057	0	32800	
8058	0	32644	
8059	0	32652	
8060	0	32712	
8061	0	32542	
8062	0	32588	
8063	0	32724	
8064	0	32800	
8065	0	32862	
8066	0	32928	
8067	0	32892	
8068	0	32924	
8069	0	32864	
8070	0	32885	
8071	0	32872	
8072	0	32876	
8073	0	32808	
8074	0	32812	
8075	0	32720	
8076	0	32660	
8077	0	32692	
8078	0	32664	
8079	0	32748	
8080	0	32720	
8081	0	32668	
8082	0	32624	
8083	0	32564	
8084	0	32732	
8085	0	32956	
8086	0	32984	
8087	0	32809	
8088	0	32704	
8089	0	32732	
8090	0	32857	
8091	0	32920	
8092	0	32988	
8093	0	32936	
8094	0	32854	
8095	0	32836	
8096	0	32700	
8097	0	32656	
8098	0	32764	
8099	0	32705	
8100	0	32612	
8101	0	32604	
8102	0	32674	
8103	0	32760	
8104	0	32804	
8105	0	32764	
8106	0	32809	
8107	0	32796	
8108	0	32860	
8109	0	32832	
8110	0	32808	
8111	0	32816	
8112	0	32852	
8113	0	32832	
8114	0	32928	
8115	0	32877	
8116	0	32680	
8117	0	32788	
8118	0	32784	
8119	0	32768	
8120	0	32652	
8121	0	32656	
8122	0	32717	
8123	0	32649	
8124	0	32762	
8125	0	32824	
8126	0	32849	
8127	0	32876	
8128	0	32948	
8129	0	32808	
8130	0	32832	
8131	0	32900	
8132	0	32848	
8133	0	32920	
8134	0	32878	
8135	0	32908	
8136	0	32848	
8137	0	32608	
8138	0	32640	
8139	0	32621	
8140	0	32505	
8141	0	32542	
8142	0	32684	
8143	0	32776	
8144	0	32836	
8145	0	32844	
8146	0	32876	
8147	0	32920	
8148	0	32866	
8149	0	32836	
8150	0	32836	
8151	0	32817	
8152	0	32820	
8153	0	32850	
8154	0	32748	
8155	0	32824	
8156	0	32708	
8157	0	32712	
8158	0	32688	
8159	0	32732	
8160	0	32809	
8161	0	32657	
8162	0	32636	
8163	0	32660	
8164	0	32740	
8165	0	32799	
8166	0	32800	
8167	0	32872	
8168	0	32810	
8169	0	32868	
8170	0	32868	
8171	0	32936	
8172	0	32940	
8173	0	32900	
8174	0	32988	
8175	0	32941	
8176	0	32636	
8177	0	32500	
8178	0	32501	
8179	0	32686	
8180	0	32688	
8181	0	32668	
8182	0	32664	
8183	0	32796	
8184	0	32741	
8185	0	32780	
8186	0	32880	
8187	0	32832	
8188	0	32824	
8189	0	32804	
8190	0	32896	
8191	0	32924	
8192	0	32804	
8193	0	32878	
8194	0	32840	
8195	0	32804	
8196	0	32788	
8197	0	32724	
8198	0	32868	
8199	0	32656	
8200	0	32580	
8201	0	32549	
8202	0	32640	
8203	0	32668	
8204	0	32784	
8205	0	32848	
8206	0	32952	
8207	0	32958	
8208	0	32825	
8209	0	32830	
8210	0	32772	
8211	0	32884	
8212	0	32828	
8213	0	32780	
8214	0	32737	
8215	0	32852	
8216	0	32780	
8217	0	32721	
8218	0	32778	
8219	0	32782	
8220	0	32632	
8221	0	32624	
8222	0	32709	
8223	0	32812	
8224	0	32908	
8225	0	32760	
8226	0	32826	
8227	0	32766	
8228	0	32732	
8229	0	32804	
8230	0	32924	
8231	0	32925	
8232	0	32884	
8233	0	32844	
8234	0	32852	
8235	0	32852	
8236	0	32752	
8237	0	32664	
8238	0	32612	
8239	0	32684	
8240	0	32588	
8241	0	32724	
8242	0	32744	
8243	0	32732	
8244	0	32924	
8245	0	32836	
8246	0	32855	
8247	0	32788	
8248	0	32844	
8249	0	32784	
8250	0	32820	
8251	0	32800	
8252	0	32824	
8253	0	32884	
8254	0	32905	
8255	0	32780	
8256	0	32740	
8257	0	32721	
8258	0	32640	
8259	0	32672	
8260	0	32612	
8261	0	32672	
8262	0	32736	
8263	0	32784	
8264	0	32908	
8265	0	32972	
8266	0	32840	
8267	0	32808	
8268	0	32688	
8269	0	32788	
8270	0	32812	
8271	0	32932	
8272	0	32920	
8273	0	32828	
8274	0	32818	
8275	0	32748	
8276	0	32672	
8277	0	32712	
8278	0	32684	
8279	0	32708	
8280	0	32684	
8281	0	32720	
8282	0	32800	
8283	0	32720	
8284	0	32752	
8285	0	32780	
8286	0	32848	
8287	0	32876	
8288	0	32856	
8289	0	32774	
8290	0	32853	
8291	0	32876	
8292	0	32901	
8293	0	32868	
8294	0	32913	
8295	0	32864	
8296	0	32778	
8297	0	32652	
8298	0	32680	
8299	0	32680	
8300	0	32672	
8301	0	32568	
8302	0	32732	
8303	0	32724	
8304	0	32761	
8305	0	32780	
8306	0	32848	
8307	0	32896	
8308	0	32828	
8309	0	32868	
8310	0	32884	
8311	0	32864	
8312	0	32868	
8313	0	32868	
8314	0	32876	
8315	0	32868	
8316	0	32736	
8317	0	32760	
8318	0	32724	
8319	0	32784	
8320	0	32668	
8321	0	32688	
8322	0	32576	
8323	0	32628	
8324	0	32760	
8325	0	32820	
8326	0	32900	
8327	0	32876	
8328	0	32792	
8329	0	32869	
8330	0	32836	
8331	0	32888	
8332	0	32824	
8333	0	32852	
8334	0	32949	
8335	0	32778	
8336	0	32678	
8337	0	32536	
8338	0	32676	
8339	0	32800	
8340	0	32724	
8341	0	32604	
8342	0	32600	
8343	0	32712	
8344	0	32848	
8345	0	32780	
8346	0	32852	
8347	0	32838	
8348	0	32849	
8349	0	32880	
8350	0	32960	
8351	0	32952	
8352	0	32864	
8353	0	32877	
8354	0	32877	
8355	0	32700	
8356	0	32668	
8357	0	32672	
8358	0	32632	
8359	0	32684	
8360	0	32612	
8361	0	32617	
8362	0	32684	
8363	0	32772	
8364	0	32934	
8365	0	32964	
8366	0	32774	
8367	0	32760	
8368	0	32756	
8369	0	32753	
8370	0	32844	
8371	0	32964	
8372	0	32889	
8373	0	32908	
8374	0	32808	
8375	0	32766	
8376	0	32724	
8377	0	32844	
8378	0	32724	
8379	0	32668	
8380	0	32568	
8381	0	32552	
8382	0	32536	
8383	0	32793	
8384	0	32984	
8385	0	32789	
8386	0	32836	
8387	0	32772	
8388	0	32796	
8389	0	32824	
8390	0	32860	
8391	0	32888	
8392	0	32864	
8393	0	32832	
8394	0	32868	
8395	0	32892	
8396	0	32760	
8397	0	32708	
8398	0	32576	
8399	0	32660	
8400	0	32624	
8401	0	32638	
8402	0	32608	
8403	0	32716	
8404	0	32852	
8405	0	32800	
8406	0	32824	
8407	0	32916	
8408	0	32788	
8409	0	32781	
8410	0	32764	
8411	0	32784	
8412	0	32844	
8413	0	32800	
8414	0	32853	
8415	0	32895	
8416	0	32801	
8417	0	32697	
8418	0	32768	
8419	0	32736	
8420	0	32633	
8421	0	32660	
8422	0	32789	
8423	0	32774	
8424	0	32816	
8425	0	32821	
8426	0	32820	
8427	0	32884	
8428	0	32918	
8429	0	32836	
8430	0	32788	
8431	0	32876	
8432	0	32888	
8433	0	32932	
8434	0	32910	
8435	0	32908	
8436	0	32745	
8437	0	32704	
8438	0	32628	
8439	0	32588	
8440	0	32685	
8441	0	32718	
8442	0	32720	
8443	0	32768	
8444	0	32748	
8445	0	32652	
8446	0	32677	
8447	0	32865	
8448	0	32956	
8449	0	32836	
8450	0	32772	
8451	0	32832	
8452	0	32929	
8453	0	32932	
8454	0	32877	
8455	0	32844	
8456	0	32676	
8457	0	32687	
8458	0	32652	
8459	0	32688	
8460	0	32632	
8461	0	32632	
8462	0	32684	
8463	0	32668	
8464	0	32758	
8465	0	32776	
8466	0	32800	
8467	0	32964	
8468	0	32981	
8469	0	32752	
8470	0	32668	
8471	0	32736	
8472	0	32844	
8473	0	32992	
8474	0	32988	
8475	0	32860	
8476	0	32848	
8477	0	32612	
8478	0	32538	
8479	0	32684	
8480	0	32686	
8481	0	32628	
8482	0	32732	
8483	0	32910	
8484	0	32849	
8485	0	32712	
8486	0	32780	
8487	0	32784	
8488	0	32760	
8489	0	32868	
8490	0	32820	
8491	0	32820	
8492	0	32804	
8493	0	32897	
8494	0	32917	
8495	0	32844	
8496	0	32744	
8497	0	32684	
8498	0	32679	
8499	0	32740	
8500	0	32740	
8501	0	32700	
8502	0	32604	
8503	0	32672	
8504	0	32700	
8505	0	32774	
8506	0	32832	
8507	0	32816	
8508	0	32846	
8509	0	32860	
8510	0	32848	
8511	0	32832	
8512	0	32896	
8513	0	32852	
8514	0	32812	
8515	0	32893	
8516	0	32805	
8517	0	32836	
8518	0	32748	
8519	0	32636	
8520	0	32550	
8521	0	32500	
8522	0	32624	
8523	0	32797	
8524	0	32860	
8525	0	32777	
8526	0	32780	
8527	0	32808	
8528	0	32816	
8529	0	32964	
8530	0	32968	
8531	0	32976	
8532	0	32836	
8533	0	32796	
8534	0	32845	
8535	0	32852	
8536	0	32712	
8537	0	32712	
8538	0	32753	
8539	0	32748	
8540	0	32712	
8541	0	32668	
8542	0	32613	
8543	0	32712	
8544	0	32768	
8545	0	32764	
8546	0	32852	
8547	0	32966	
8548	0	32908	
8549	0	32804	
8550	0	32918	
8551	0	32868	
8552	0	32932	
8553	0	32744	
8554	0	32824	
8555	0	32808	
8556	0	32736	
8557	0	32732	
8558	0	32688	
8559	0	32608	
8560	0	32628	
8561	0	32604	
8562	0	32600	
8563	0	32688	
8564	0	32768	
8565	0	32868	
8566	0	32877	
8567	0	32868	
8568	0	32948	
8569	0	32876	
8570	0	32952	
8571	0	32892	
8572	0	32816	
8573	0	32748	
8574	0	32834	
8575	0	32932	
8576	0	32792	
8577	0	32665	
8578	0	32572	
8579	0	32652	
8580	0	32644	
8581	0	32664	
8582	0	32720	
8583	0	32844	
8584	0	32832	
8585	0	32784	
8586	0	32892	
8587	0	32884	
8588	0	32800	
8589	0	32796	
8590	0	32752	
8591	0	32774	
8592	0	32812	
8593	0	32760	
8594	0	32928	
8595	0	32864	
8596	0	32788	
8597	0	32784	
8598	0	32749	
8599	0	32698	
8600	0	32600	
8601	0	32576	
8602	0	32628	
8603	0	32756	
8604	0	32808	
8605	0	32952	
8606	0	32896	
8607	0	32800	
8608	0	32748	
8609	0	32832	
8610	0	32901	
8611	0	32920	
8612	0	32888	
8613	0	32852	
