# OpenSignals Text File Format. Version 1
# {"00:07:80:4D:2E:9E": {"position": 0, "device": "biosignalsplux", "device name": "00:07:80:4D:2E:9E", "device connection": "BTH00:07:80:4D:2E:9E", "sampling rate": 1000, "resolution": [16], "firmware version": 774, "comments": "", "keywords": "", "mode": 0, "sync interval": 2, "date": "2020-7-29", "time": "18:6:53.203", "channels": [1], "sensor": ["EMG"], "label": ["CH1"], "column": ["nSeq", "DI", "CH1"], "special": [{}], "digital IO": [0, 1]}}
# EndOfHeader
0	0	32632	
1	0	32688	
2	0	32676	
3	0	32660	
4	0	32684	
5	0	32653	
6	0	32768	
7	0	32748	
8	0	32820	
9	0	32828	
10	0	32758	
11	0	32900	
12	0	32820	
13	0	32864	
14	0	32896	
15	0	32876	
16	0	32776	
17	0	32784	
18	0	32888	
19	0	32728	
20	0	32809	
21	0	32672	
22	0	32633	
23	0	32646	
24	0	32640	
25	0	32744	
26	0	32778	
27	0	32813	
28	0	32860	
29	0	32772	
30	0	32789	
31	0	32846	
32	0	32860	
33	0	32852	
34	0	32826	
35	0	32816	
36	0	32936	
37	0	33013	
38	0	32885	
39	0	32742	
40	0	32686	
41	0	32566	
42	0	32614	
43	0	32660	
44	0	32624	
45	0	32708	
46	0	32808	
47	0	32801	
48	0	32828	
49	0	32660	
50	0	32717	
51	0	32909	
52	0	32912	
53	0	32894	
54	0	32908	
55	0	32860	
56	0	32904	
57	0	32934	
58	0	32764	
59	0	32568	
60	0	32524	
61	0	32692	
62	0	32720	
63	0	32756	
64	0	32700	
65	0	32792	
66	0	32684	
67	0	32676	
68	0	32900	
69	0	32894	
70	0	32896	
71	0	32836	
72	0	32820	
73	0	32776	
74	0	32840	
75	0	32844	
76	0	32926	
77	0	32852	
78	0	32740	
79	0	32705	
80	0	32708	
81	0	32612	
82	0	32656	
83	0	32647	
84	0	32722	
85	0	32768	
86	0	32704	
87	0	32888	
88	0	32972	
89	0	32860	
90	0	32820	
91	0	32696	
92	0	32836	
93	0	32860	
94	0	32860	
95	0	32932	
96	0	32888	
97	0	32860	
98	0	32748	
99	0	32736	
100	0	32768	
101	0	32760	
102	0	32604	
103	0	32620	
104	0	32608	
105	0	32736	
106	0	32800	
107	0	32816	
108	0	32758	
109	0	32916	
110	0	32876	
111	0	32793	
112	0	32808	
113	0	32804	
114	0	32872	
115	0	32748	
116	0	33037	
117	0	33041	
118	0	32800	
119	0	32553	
120	0	32545	
121	0	32672	
122	0	32664	
123	0	32612	
124	0	32630	
125	0	32744	
126	0	32800	
127	0	32772	
128	0	32870	
129	0	32880	
130	0	32948	
131	0	32924	
132	0	33020	
133	0	32964	
134	0	32877	
135	0	32800	
136	0	32740	
137	0	32896	
138	0	32680	
139	0	32661	
140	0	32644	
141	0	32780	
142	0	32777	
143	0	32640	
144	0	32640	
145	0	32656	
146	0	32720	
147	0	32784	
148	0	32868	
149	0	32953	
150	0	32836	
151	0	32892	
152	0	32860	
153	0	32876	
154	0	32832	
155	0	32808	
156	0	32860	
157	0	32828	
158	0	32764	
159	0	32708	
160	0	32712	
161	0	32644	
162	0	32662	
163	0	32608	
164	0	32636	
165	0	32713	
166	0	32740	
167	0	32821	
168	0	32788	
169	0	32888	
170	0	32892	
171	0	32869	
172	0	32876	
173	0	32817	
174	0	32780	
175	0	32812	
176	0	32782	
177	0	32833	
178	0	32812	
179	0	32692	
180	0	32704	
181	0	32712	
182	0	32656	
183	0	32684	
184	0	32736	
185	0	32734	
186	0	32748	
187	0	32673	
188	0	32768	
189	0	32796	
190	0	32860	
191	0	32952	
192	0	32878	
193	0	32894	
194	0	32888	
195	0	32828	
196	0	32780	
197	0	32708	
198	0	32684	
199	0	32657	
200	0	32720	
201	0	32741	
202	0	32717	
203	0	32676	
204	0	32608	
205	0	32708	
206	0	32804	
207	0	32776	
208	0	32852	
209	0	32892	
210	0	32841	
211	0	32868	
212	0	32820	
213	0	32824	
214	0	32961	
215	0	32904	
216	0	32900	
217	0	32784	
218	0	32748	
219	0	32760	
220	0	32692	
221	0	32656	
222	0	32644	
223	0	32689	
224	0	32632	
225	0	32736	
226	0	32808	
227	0	32832	
228	0	32838	
229	0	32865	
230	0	32964	
231	0	32880	
232	0	32856	
233	0	32724	
234	0	32764	
235	0	32852	
236	0	32920	
237	0	32888	
238	0	32724	
239	0	32728	
240	0	32645	
241	0	32656	
242	0	32780	
243	0	32678	
244	0	32622	
245	0	32644	
246	0	32800	
247	0	32736	
248	0	32785	
249	0	32832	
250	0	32862	
251	0	32861	
252	0	32842	
253	0	32748	
254	0	32772	
255	0	32732	
256	0	32840	
257	0	32816	
258	0	32732	
259	0	32772	
260	0	32756	
261	0	32656	
262	0	32668	
263	0	32644	
264	0	32660	
265	0	32772	
266	0	32814	
267	0	32812	
268	0	32868	
269	0	32848	
270	0	32896	
271	0	32908	
272	0	32840	
273	0	32968	
274	0	32964	
275	0	32876	
276	0	32928	
277	0	32896	
278	0	32798	
279	0	32632	
280	0	32776	
281	0	32744	
282	0	32712	
283	0	32652	
284	0	32604	
285	0	32736	
286	0	32732	
287	0	32728	
288	0	32799	
289	0	32784	
290	0	32808	
291	0	32900	
292	0	32892	
293	0	32948	
294	0	32940	
295	0	32796	
296	0	32828	
297	0	32764	
298	0	32852	
299	0	32752	
300	0	32644	
301	0	32620	
302	0	32576	
303	0	32516	
304	0	32580	
305	0	32704	
306	0	32732	
307	0	32740	
308	0	32888	
309	0	32872	
310	0	32808	
311	0	32808	
312	0	32782	
313	0	32932	
314	0	32944	
315	0	32912	
316	0	33008	
317	0	32820	
318	0	32680	
319	0	32588	
320	0	32584	
321	0	32644	
322	0	32832	
323	0	32737	
324	0	32752	
325	0	32672	
326	0	32704	
327	0	32740	
328	0	32836	
329	0	32824	
330	0	32816	
331	0	32808	
332	0	32864	
333	0	32812	
334	0	32800	
335	0	32900	
336	0	32876	
337	0	32881	
338	0	32750	
339	0	32756	
340	0	32712	
341	0	32756	
342	0	32696	
343	0	32656	
344	0	32576	
345	0	32718	
346	0	32748	
347	0	32804	
348	0	32872	
349	0	32900	
350	0	32872	
351	0	32852	
352	0	32776	
353	0	32852	
354	0	32848	
355	0	32850	
356	0	32876	
357	0	32818	
358	0	32758	
359	0	32836	
360	0	32724	
361	0	32728	
362	0	32608	
363	0	32550	
364	0	32656	
365	0	32693	
366	0	32756	
367	0	32748	
368	0	32852	
369	0	32820	
370	0	32768	
371	0	32816	
372	0	32868	
373	0	32972	
374	0	32877	
375	0	32766	
376	0	32944	
377	0	32916	
378	0	32837	
379	0	32798	
380	0	32580	
381	0	32656	
382	0	32668	
383	0	32664	
384	0	32696	
385	0	32784	
386	0	32636	
387	0	32792	
388	0	32808	
389	0	32852	
390	0	32817	
391	0	32788	
392	0	32870	
393	0	32884	
394	0	32884	
395	0	32828	
396	0	32838	
397	0	32869	
398	0	32780	
399	0	32776	
400	0	32772	
401	0	32636	
402	0	32545	
403	0	32568	
404	0	32636	
405	0	32720	
406	0	32784	
407	0	32736	
408	0	32836	
409	0	32900	
410	0	32889	
411	0	32780	
412	0	32768	
413	0	32892	
414	0	33029	
415	0	32868	
416	0	32925	
417	0	32788	
418	0	32685	
419	0	32740	
420	0	32676	
421	0	32676	
422	0	32716	
423	0	32668	
424	0	32564	
425	0	32616	
426	0	32684	
427	0	32804	
428	0	32836	
429	0	32890	
430	0	32860	
431	0	32812	
432	0	32966	
433	0	32912	
434	0	32916	
435	0	32860	
436	0	32865	
437	0	32844	
438	0	32781	
439	0	32692	
440	0	32726	
441	0	32636	
442	0	32629	
443	0	32617	
444	0	32576	
445	0	32680	
446	0	32692	
447	0	32828	
448	0	32878	
449	0	32788	
450	0	32868	
451	0	32836	
452	0	32832	
453	0	32853	
454	0	32836	
455	0	32784	
456	0	32858	
457	0	32924	
458	0	32828	
459	0	32764	
460	0	32722	
461	0	32716	
462	0	32612	
463	0	32614	
464	0	32641	
465	0	32688	
466	0	32757	
467	0	32816	
468	0	32856	
469	0	32852	
470	0	32884	
471	0	32797	
472	0	32896	
473	0	33033	
474	0	32888	
475	0	32852	
476	0	32880	
477	0	32758	
478	0	32692	
479	0	32716	
480	0	32716	
481	0	32700	
482	0	32710	
483	0	32628	
484	0	32644	
485	0	32676	
486	0	32677	
487	0	32716	
488	0	32724	
489	0	32844	
490	0	32820	
491	0	32841	
492	0	32926	
493	0	32937	
494	0	32860	
495	0	32820	
496	0	32904	
497	0	32832	
498	0	32788	
499	0	32718	
500	0	32636	
501	0	32676	
502	0	32761	
503	0	32780	
504	0	32648	
505	0	32628	
506	0	32748	
507	0	32708	
508	0	32800	
509	0	32776	
510	0	32805	
511	0	33049	
512	0	32936	
513	0	32998	
514	0	32808	
515	0	32748	
516	0	32788	
517	0	32736	
518	0	32668	
519	0	32745	
520	0	32696	
521	0	32725	
522	0	32693	
523	0	32654	
524	0	32676	
525	0	32724	
526	0	32652	
527	0	32788	
528	0	32912	
529	0	32924	
530	0	32884	
531	0	32838	
532	0	32760	
533	0	32796	
534	0	32928	
535	0	32894	
536	0	32857	
537	0	32868	
538	0	32845	
539	0	32744	
540	0	32718	
541	0	32656	
542	0	32720	
543	0	32688	
544	0	32596	
545	0	32712	
546	0	32724	
547	0	32816	
548	0	32804	
549	0	32862	
550	0	32800	
551	0	32812	
552	0	32852	
553	0	32855	
554	0	32869	
555	0	32794	
556	0	32916	
557	0	32860	
558	0	32832	
559	0	32790	
560	0	32752	
561	0	32672	
562	0	32736	
563	0	32688	
564	0	32584	
565	0	32612	
566	0	32704	
567	0	32796	
568	0	32792	
569	0	32840	
570	0	32884	
571	0	32808	
572	0	32789	
573	0	32848	
574	0	32856	
575	0	32776	
576	0	32944	
577	0	32869	
578	0	32828	
579	0	32768	
580	0	32780	
581	0	32724	
582	0	32681	
583	0	32692	
584	0	32646	
585	0	32684	
586	0	32640	
587	0	32680	
588	0	32764	
589	0	32804	
590	0	32928	
591	0	32868	
592	0	32989	
593	0	32892	
594	0	32868	
595	0	32888	
596	0	32816	
597	0	32876	
598	0	32756	
599	0	32688	
600	0	32821	
601	0	32801	
602	0	32564	
603	0	32522	
604	0	32708	
605	0	32628	
606	0	32657	
607	0	32804	
608	0	32900	
609	0	32904	
610	0	32800	
611	0	32804	
612	0	32768	
613	0	32908	
614	0	32936	
615	0	32852	
616	0	32844	
617	0	32848	
618	0	32844	
619	0	32672	
620	0	32680	
621	0	32652	
622	0	32576	
623	0	32636	
624	0	32656	
625	0	32788	
626	0	32902	
627	0	32900	
628	0	32850	
629	0	32764	
630	0	32761	
631	0	32828	
632	0	32856	
633	0	32748	
634	0	32736	
635	0	32856	
636	0	32936	
637	0	32908	
638	0	32860	
639	0	32700	
640	0	32700	
641	0	32708	
642	0	32692	
643	0	32692	
644	0	32669	
645	0	32620	
646	0	32706	
647	0	32748	
648	0	32798	
649	0	32888	
650	0	32920	
651	0	32980	
652	0	32920	
653	0	32824	
654	0	32856	
655	0	32828	
656	0	32868	
657	0	32836	
658	0	32768	
659	0	32750	
660	0	32712	
661	0	32692	
662	0	32560	
663	0	32598	
664	0	32624	
665	0	32648	
666	0	32796	
667	0	32760	
668	0	32792	
669	0	32828	
670	0	32828	
671	0	32840	
672	0	32816	
673	0	32856	
674	0	32852	
675	0	32824	
676	0	32824	
677	0	32916	
678	0	32870	
679	0	32752	
680	0	32716	
681	0	32688	
682	0	32704	
683	0	32660	
684	0	32668	
685	0	32696	
686	0	32784	
687	0	32752	
688	0	32825	
689	0	32776	
690	0	32785	
691	0	32960	
692	0	32824	
693	0	32944	
694	0	32846	
695	0	32832	
696	0	32800	
697	0	32816	
698	0	32876	
699	0	32713	
700	0	32724	
701	0	32724	
702	0	32628	
703	0	32609	
704	0	32592	
705	0	32688	
706	0	32724	
707	0	32784	
708	0	32882	
709	0	32900	
710	0	32841	
711	0	32860	
712	0	32836	
713	0	32808	
714	0	32884	
715	0	32848	
716	0	32880	
717	0	32868	
718	0	32864	
719	0	32816	
720	0	32736	
721	0	32660	
722	0	32662	
723	0	32656	
724	0	32656	
725	0	32704	
726	0	32692	
727	0	32680	
728	0	32740	
729	0	32797	
730	0	32876	
731	0	32896	
732	0	32878	
733	0	33001	
734	0	33052	
735	0	32992	
736	0	32750	
737	0	32720	
738	0	32584	
739	0	32548	
740	0	32687	
741	0	32884	
742	0	32804	
743	0	32660	
744	0	32728	
745	0	32696	
746	0	32724	
747	0	32684	
748	0	32826	
749	0	32872	
750	0	32848	
751	0	32768	
752	0	32780	
753	0	32928	
754	0	32892	
755	0	32848	
756	0	32761	
757	0	32816	
758	0	32804	
759	0	32822	
760	0	32720	
761	0	32732	
762	0	32712	
763	0	32679	
764	0	32601	
765	0	32656	
766	0	32732	
767	0	32828	
768	0	32844	
769	0	32836	
770	0	32824	
771	0	32788	
772	0	32768	
773	0	32892	
774	0	32942	
775	0	32896	
776	0	32870	
777	0	32800	
778	0	32732	
779	0	32688	
780	0	32752	
781	0	32796	
782	0	32606	
783	0	32652	
784	0	32628	
785	0	32688	
786	0	32760	
787	0	32840	
788	0	32788	
789	0	32864	
790	0	32844	
791	0	32880	
792	0	32904	
793	0	32888	
794	0	32792	
795	0	32756	
796	0	32860	
797	0	32930	
798	0	32968	
799	0	32788	
800	0	32664	
801	0	32670	
802	0	32609	
803	0	32536	
804	0	32622	
805	0	32688	
806	0	32793	
807	0	32796	
808	0	32804	
809	0	32832	
810	0	32744	
811	0	32877	
812	0	32884	
813	0	32824	
814	0	32808	
815	0	32804	
816	0	32868	
817	0	32932	
818	0	32780	
819	0	32808	
820	0	32728	
821	0	32732	
822	0	32664	
823	0	32660	
824	0	32672	
825	0	32744	
826	0	32816	
827	0	32794	
828	0	32796	
829	0	32760	
830	0	32812	
831	0	32708	
832	0	32794	
833	0	32896	
834	0	32916	
835	0	32855	
836	0	32836	
837	0	32824	
838	0	32876	
839	0	32744	
840	0	32694	
841	0	32708	
842	0	32756	
843	0	32621	
844	0	32612	
845	0	32698	
846	0	32708	
847	0	32752	
848	0	32796	
849	0	32868	
850	0	32832	
851	0	32894	
852	0	32852	
853	0	32924	
854	0	32862	
855	0	32812	
856	0	32912	
857	0	32924	
858	0	32808	
859	0	32732	
860	0	32644	
861	0	32655	
862	0	32708	
863	0	32672	
864	0	32623	
865	0	32688	
866	0	32729	
867	0	32800	
868	0	32868	
869	0	32808	
870	0	32802	
871	0	32824	
872	0	32820	
873	0	32848	
874	0	32796	
875	0	32836	
876	0	32916	
877	0	33012	
878	0	32960	
879	0	32768	
880	0	32524	
881	0	32612	
882	0	32812	
883	0	32600	
884	0	32556	
885	0	32652	
886	0	32608	
887	0	32677	
888	0	32832	
889	0	32816	
890	0	32900	
891	0	32780	
892	0	32804	
893	0	32880	
894	0	33000	
895	0	32941	
896	0	32808	
897	0	32772	
898	0	32724	
899	0	32700	
900	0	32652	
901	0	32792	
902	0	32764	
903	0	32556	
904	0	32536	
905	0	32428	
906	0	32684	
907	0	32832	
908	0	32832	
909	0	32852	
910	0	32796	
911	0	32788	
912	0	32848	
913	0	32908	
914	0	32936	
915	0	32900	
916	0	32936	
917	0	32920	
918	0	32940	
919	0	32864	
920	0	32750	
921	0	32728	
922	0	32736	
923	0	32681	
924	0	32660	
925	0	32694	
926	0	32732	
927	0	32757	
928	0	32788	
929	0	32864	
930	0	32868	
931	0	32844	
932	0	32864	
933	0	32840	
934	0	32848	
935	0	32886	
936	0	32864	
937	0	32832	
938	0	32844	
939	0	32772	
940	0	32712	
941	0	32661	
942	0	32717	
943	0	32692	
944	0	32552	
945	0	32600	
946	0	32632	
947	0	32751	
948	0	32820	
949	0	32924	
950	0	32880	
951	0	32916	
952	0	32804	
953	0	32696	
954	0	32820	
955	0	32812	
956	0	32952	
957	0	32916	
958	0	32772	
959	0	32748	
960	0	32768	
961	0	32784	
962	0	32744	
963	0	32629	
964	0	32612	
965	0	32604	
966	0	32644	
967	0	32868	
968	0	32888	
969	0	32874	
970	0	32845	
971	0	32712	
972	0	32828	
973	0	32741	
974	0	32852	
975	0	32784	
976	0	32880	
977	0	32848	
978	0	32832	
979	0	32792	
980	0	32775	
981	0	32684	
982	0	32736	
983	0	32646	
984	0	32620	
985	0	32752	
986	0	32852	
987	0	32852	
988	0	32804	
989	0	32764	
990	0	32740	
991	0	32768	
992	0	32744	
993	0	32808	
994	0	32932	
995	0	33040	
996	0	32988	
997	0	32890	
998	0	32785	
999	0	32653	
1000	0	32760	
1001	0	32708	
1002	0	32692	
1003	0	32613	
1004	0	32544	
1005	0	32648	
1006	0	32796	
1007	0	32725	
1008	0	32720	
1009	0	32750	
1010	0	32908	
1011	0	32932	
1012	0	32760	
1013	0	32868	
1014	0	32852	
1015	0	32944	
1016	0	32920	
1017	0	32940	
1018	0	32836	
1019	0	32668	
1020	0	32708	
1021	0	32789	
1022	0	32758	
1023	0	32685	
1024	0	32652	
1025	0	32648	
1026	0	32636	
1027	0	32776	
1028	0	32750	
1029	0	32828	
1030	0	32776	
1031	0	32848	
1032	0	32864	
1033	0	32860	
1034	0	32920	
1035	0	32894	
1036	0	32856	
1037	0	32852	
1038	0	32800	
1039	0	32732	
1040	0	32793	
1041	0	32694	
1042	0	32680	
1043	0	32604	
1044	0	32644	
1045	0	32628	
1046	0	32736	
1047	0	32724	
1048	0	32738	
1049	0	32912	
1050	0	32878	
1051	0	32820	
1052	0	32904	
1053	0	32869	
1054	0	32764	
1055	0	32812	
1056	0	32844	
1057	0	32912	
1058	0	32808	
1059	0	32796	
1060	0	32700	
1061	0	32630	
1062	0	32736	
1063	0	32652	
1064	0	32620	
1065	0	32652	
1066	0	32716	
1067	0	32856	
1068	0	32848	
1069	0	32876	
1070	0	32861	
1071	0	32816	
1072	0	32772	
1073	0	32744	
1074	0	32808	
1075	0	32792	
1076	0	32813	
1077	0	32968	
1078	0	32900	
1079	0	32846	
1080	0	32688	
1081	0	32644	
1082	0	32712	
1083	0	32692	
1084	0	32680	
1085	0	32622	
1086	0	32720	
1087	0	32772	
1088	0	32798	
1089	0	32792	
1090	0	32836	
1091	0	32848	
1092	0	32816	
1093	0	32900	
1094	0	33024	
1095	0	32924	
1096	0	32826	
1097	0	32740	
1098	0	32769	
1099	0	32686	
1100	0	32704	
1101	0	32753	
1102	0	32737	
1103	0	32712	
1104	0	32708	
1105	0	32728	
1106	0	32660	
1107	0	32708	
1108	0	32796	
1109	0	32864	
1110	0	32884	
1111	0	32856	
1112	0	32876	
1113	0	32888	
1114	0	32888	
1115	0	32876	
1116	0	32824	
1117	0	32884	
1118	0	32852	
1119	0	32732	
1120	0	32708	
1121	0	32624	
1122	0	32620	
1123	0	32657	
1124	0	32639	
1125	0	32722	
1126	0	32732	
1127	0	32748	
1128	0	32760	
1129	0	32876	
1130	0	32916	
1131	0	32884	
1132	0	32893	
1133	0	32920	
1134	0	32784	
1135	0	32736	
1136	0	32804	
1137	0	32868	
1138	0	32940	
1139	0	32740	
1140	0	32709	
1141	0	32751	
1142	0	32776	
1143	0	32588	
1144	0	32612	
1145	0	32552	
1146	0	32661	
1147	0	32736	
1148	0	32812	
1149	0	32820	
1150	0	32924	
1151	0	32912	
1152	0	32896	
1153	0	32840	
1154	0	32832	
1155	0	32768	
1156	0	32880	
1157	0	32950	
1158	0	32792	
1159	0	32784	
1160	0	32700	
1161	0	32740	
1162	0	32720	
1163	0	32653	
1164	0	32593	
1165	0	32664	
1166	0	32748	
1167	0	32774	
1168	0	32764	
1169	0	32692	
1170	0	32836	
1171	0	32932	
1172	0	32876	
1173	0	32816	
1174	0	32856	
1175	0	32728	
1176	0	32900	
1177	0	32929	
1178	0	32856	
1179	0	32749	
1180	0	32736	
1181	0	32780	
1182	0	32768	
1183	0	32656	
1184	0	32572	
1185	0	32537	
1186	0	32518	
1187	0	32672	
1188	0	32804	
1189	0	32948	
1190	0	32884	
1191	0	32932	
1192	0	33012	
1193	0	32908	
1194	0	32777	
1195	0	32776	
1196	0	32870	
1197	0	32888	
1198	0	32789	
1199	0	32748	
1200	0	32664	
1201	0	32692	
1202	0	32692	
1203	0	32592	
1204	0	32648	
1205	0	32756	
1206	0	32820	
1207	0	32800	
1208	0	32768	
1209	0	32781	
1210	0	32784	
1211	0	32836	
1212	0	32780	
1213	0	32712	
1214	0	32752	
1215	0	32792	
1216	0	32821	
1217	0	32900	
1218	0	32839	
1219	0	32844	
1220	0	32792	
1221	0	32716	
1222	0	32708	
1223	0	32548	
1224	0	32668	
1225	0	32652	
1226	0	32732	
1227	0	32761	
1228	0	32788	
1229	0	32852	
1230	0	32904	
1231	0	32824	
1232	0	32660	
1233	0	32805	
1234	0	32884	
1235	0	32896	
1236	0	32896	
1237	0	32928	
1238	0	32942	
1239	0	32792	
1240	0	32772	
1241	0	32752	
1242	0	32688	
1243	0	32616	
1244	0	32616	
1245	0	32628	
1246	0	32736	
1247	0	32756	
1248	0	32792	
1249	0	32840	
1250	0	32844	
1251	0	32870	
1252	0	32796	
1253	0	32848	
1254	0	32872	
1255	0	32837	
1256	0	32912	
1257	0	32936	
1258	0	32932	
1259	0	32832	
1260	0	32712	
1261	0	32556	
1262	0	32677	
1263	0	32708	
1264	0	32672	
1265	0	32660	
1266	0	32680	
1267	0	32792	
1268	0	32822	
1269	0	32756	
1270	0	32896	
1271	0	32872	
1272	0	32816	
1273	0	32832	
1274	0	32732	
1275	0	32868	
1276	0	32832	
1277	0	32953	
1278	0	32912	
1279	0	32856	
1280	0	32762	
1281	0	32660	
1282	0	32668	
1283	0	32696	
1284	0	32614	
1285	0	32576	
1286	0	32542	
1287	0	32588	
1288	0	32788	
1289	0	33028	
1290	0	32948	
1291	0	32846	
1292	0	32896	
1293	0	32920	
1294	0	32940	
1295	0	32860	
1296	0	32720	
1297	0	32741	
1298	0	32828	
1299	0	32780	
1300	0	32720	
1301	0	32792	
1302	0	32668	
1303	0	32492	
1304	0	32604	
1305	0	32664	
1306	0	32728	
1307	0	32796	
1308	0	32796	
1309	0	32942	
1310	0	32845	
1311	0	32824	
1312	0	32814	
1313	0	32884	
1314	0	32832	
1315	0	32879	
1316	0	32845	
1317	0	32820	
1318	0	32892	
1319	0	32736	
1320	0	32706	
1321	0	32668	
1322	0	32804	
1323	0	32828	
1324	0	32636	
1325	0	32570	
1326	0	32644	
1327	0	32768	
1328	0	32869	
1329	0	32802	
1330	0	32792	
1331	0	32872	
1332	0	32920	
1333	0	33000	
1334	0	32863	
1335	0	32784	
1336	0	32665	
1337	0	32716	
1338	0	32797	
1339	0	32831	
1340	0	32788	
1341	0	32716	
1342	0	32828	
1343	0	32792	
1344	0	32625	
1345	0	32600	
1346	0	32605	
1347	0	32800	
1348	0	32856	
1349	0	32852	
1350	0	32844	
1351	0	32871	
1352	0	32869	
1353	0	32873	
1354	0	32884	
1355	0	32868	
1356	0	32802	
1357	0	32853	
1358	0	32812	
1359	0	32740	
1360	0	32657	
1361	0	32768	
1362	0	32796	
1363	0	32704	
1364	0	32696	
1365	0	32572	
1366	0	32648	
1367	0	32702	
1368	0	32812	
1369	0	32868	
1370	0	32980	
1371	0	32863	
1372	0	32801	
1373	0	32822	
1374	0	32968	
1375	0	32856	
1376	0	32912	
1377	0	32949	
1378	0	32788	
1379	0	32722	
1380	0	32700	
1381	0	32697	
1382	0	32629	
1383	0	32692	
1384	0	32656	
1385	0	32624	
1386	0	32656	
1387	0	32680	
1388	0	32800	
1389	0	32816	
1390	0	32887	
1391	0	32892	
1392	0	32820	
1393	0	32860	
1394	0	32886	
1395	0	32972	
1396	0	32948	
1397	0	32884	
1398	0	32853	
1399	0	32700	
1400	0	32700	
1401	0	32612	
1402	0	32700	
1403	0	32703	
1404	0	32633	
1405	0	32668	
1406	0	32684	
1407	0	32712	
1408	0	32824	
1409	0	32876	
1410	0	32760	
1411	0	32848	
1412	0	32876	
1413	0	32888	
1414	0	32848	
1415	0	32848	
1416	0	32817	
1417	0	32900	
1418	0	32860	
1419	0	32732	
1420	0	32697	
1421	0	32672	
1422	0	32644	
1423	0	32652	
1424	0	32604	
1425	0	32696	
1426	0	32772	
1427	0	32800	
1428	0	32844	
1429	0	32822	
1430	0	32780	
1431	0	32792	
1432	0	32809	
1433	0	32868	
1434	0	32876	
1435	0	32844	
1436	0	32936	
1437	0	32996	
1438	0	32852	
1439	0	32820	
1440	0	32716	
1441	0	32640	
1442	0	32612	
1443	0	32668	
1444	0	32632	
1445	0	32753	
1446	0	32704	
1447	0	32728	
1448	0	32796	
1449	0	32749	
1450	0	32881	
1451	0	32826	
1452	0	32760	
1453	0	32812	
1454	0	32840	
1455	0	32884	
1456	0	32876	
1457	0	32924	
1458	0	32852	
1459	0	32789	
1460	0	32777	
1461	0	32796	
1462	0	32782	
1463	0	32664	
1464	0	32753	
1465	0	32613	
1466	0	32646	
1467	0	32700	
1468	0	32728	
1469	0	32776	
1470	0	32861	
1471	0	32869	
1472	0	32926	
1473	0	32844	
1474	0	32932	
1475	0	32864	
1476	0	32860	
1477	0	32824	
1478	0	32944	
1479	0	32800	
1480	0	32712	
1481	0	32564	
1482	0	32616	
1483	0	32665	
1484	0	32742	
1485	0	32708	
1486	0	32677	
1487	0	32708	
1488	0	32744	
1489	0	32804	
1490	0	32856	
1491	0	32818	
1492	0	32888	
1493	0	32916	
1494	0	32828	
1495	0	32884	
1496	0	32852	
1497	0	32944	
1498	0	32832	
1499	0	32772	
1500	0	32706	
1501	0	32724	
1502	0	32638	
1503	0	32628	
1504	0	32600	
1505	0	32652	
1506	0	32750	
1507	0	32856	
1508	0	32836	
1509	0	32904	
1510	0	32980	
1511	0	32828	
1512	0	32752	
1513	0	32792	
1514	0	32872	
1515	0	32844	
1516	0	32846	
1517	0	32892	
1518	0	32846	
1519	0	32765	
1520	0	32728	
1521	0	32701	
1522	0	32780	
1523	0	32741	
1524	0	32584	
1525	0	32652	
1526	0	32632	
1527	0	32688	
1528	0	32708	
1529	0	32753	
1530	0	32888	
1531	0	32956	
1532	0	32831	
1533	0	32896	
1534	0	32932	
1535	0	32956	
1536	0	32924	
1537	0	32940	
1538	0	32832	
1539	0	32708	
1540	0	32640	
1541	0	32650	
1542	0	32692	
1543	0	32688	
1544	0	32636	
1545	0	32645	
1546	0	32716	
1547	0	32752	
1548	0	32737	
1549	0	32864	
1550	0	32928	
1551	0	32893	
1552	0	32860	
1553	0	32896	
1554	0	32836	
1555	0	32824	
1556	0	32816	
1557	0	32888	
1558	0	32892	
1559	0	32732	
1560	0	32644	
1561	0	32568	
1562	0	32620	
1563	0	32760	
1564	0	32612	
1565	0	32676	
1566	0	32732	
1567	0	32688	
1568	0	32836	
1569	0	32797	
1570	0	32692	
1571	0	32840	
1572	0	32816	
1573	0	32784	
1574	0	32984	
1575	0	32872	
1576	0	32836	
1577	0	32876	
1578	0	32772	
1579	0	32738	
1580	0	32656	
1581	0	32732	
1582	0	32740	
1583	0	32676	
1584	0	32692	
1585	0	32733	
1586	0	32808	
1587	0	32861	
1588	0	32824	
1589	0	32905	
1590	0	32896	
1591	0	32968	
1592	0	32837	
1593	0	32768	
1594	0	32864	
1595	0	32932	
1596	0	32880	
1597	0	32816	
1598	0	32760	
1599	0	32766	
1600	0	32732	
1601	0	32676	
1602	0	32650	
1603	0	32621	
1604	0	32558	
1605	0	32644	
1606	0	32692	
1607	0	32829	
1608	0	32836	
1609	0	32840	
1610	0	32825	
1611	0	32844	
1612	0	32836	
1613	0	32824	
1614	0	32836	
1615	0	32912	
1616	0	32856	
1617	0	32856	
1618	0	32964	
1619	0	32828	
1620	0	32701	
1621	0	32616	
1622	0	32628	
1623	0	32576	
1624	0	32544	
1625	0	32612	
1626	0	32668	
1627	0	32792	
1628	0	32780	
1629	0	32940	
1630	0	32956	
1631	0	32856	
1632	0	32772	
1633	0	32840	
1634	0	32794	
1635	0	32781	
1636	0	32822	
1637	0	32900	
1638	0	32864	
1639	0	32752	
1640	0	32780	
1641	0	32816	
1642	0	32766	
1643	0	32620	
1644	0	32660	
1645	0	32680	
1646	0	32688	
1647	0	32800	
1648	0	32801	
1649	0	32884	
1650	0	32844	
1651	0	32804	
1652	0	32788	
1653	0	32822	
1654	0	32824	
1655	0	32884	
1656	0	32816	
1657	0	32896	
1658	0	32840	
1659	0	32716	
1660	0	32712	
1661	0	32804	
1662	0	32716	
1663	0	32806	
1664	0	32536	
1665	0	32668	
1666	0	32780	
1667	0	32720	
1668	0	32689	
1669	0	32738	
1670	0	32744	
1671	0	32776	
1672	0	32856	
1673	0	32933	
1674	0	32846	
1675	0	32812	
1676	0	32860	
1677	0	32904	
1678	0	32916	
1679	0	32888	
1680	0	32764	
1681	0	32638	
1682	0	32676	
1683	0	32550	
1684	0	32556	
1685	0	32668	
1686	0	32664	
1687	0	32721	
1688	0	32868	
1689	0	32944	
1690	0	32952	
1691	0	32952	
1692	0	32816	
1693	0	32805	
1694	0	32862	
1695	0	32791	
1696	0	32828	
1697	0	32924	
1698	0	32952	
1699	0	32724	
1700	0	32676	
1701	0	32624	
1702	0	32652	
1703	0	32636	
1704	0	32608	
1705	0	32624	
1706	0	32745	
1707	0	32752	
1708	0	32892	
1709	0	33048	
1710	0	32920	
1711	0	32680	
1712	0	32696	
1713	0	32828	
1714	0	32839	
1715	0	32792	
1716	0	32817	
1717	0	32844	
1718	0	32845	
1719	0	32785	
1720	0	32712	
1721	0	32720	
1722	0	32724	
1723	0	32644	
1724	0	32622	
1725	0	32600	
1726	0	32704	
1727	0	32796	
1728	0	32801	
1729	0	32964	
1730	0	32968	
1731	0	32868	
1732	0	32840	
1733	0	32824	
1734	0	32856	
1735	0	32884	
1736	0	32804	
1737	0	32820	
1738	0	32820	
1739	0	32768	
1740	0	32752	
1741	0	32676	
1742	0	32632	
1743	0	32592	
1744	0	32629	
1745	0	32644	
1746	0	32677	
1747	0	32788	
1748	0	32840	
1749	0	32820	
1750	0	32848	
1751	0	32846	
1752	0	32974	
1753	0	32832	
1754	0	32880	
1755	0	32792	
1756	0	32968	
1757	0	32984	
1758	0	32820	
1759	0	32628	
1760	0	32612	
1761	0	32744	
1762	0	32745	
1763	0	32728	
1764	0	32632	
1765	0	32566	
1766	0	32709	
1767	0	32768	
1768	0	32724	
1769	0	32828	
1770	0	32960	
1771	0	32864	
1772	0	32844	
1773	0	32832	
1774	0	32773	
1775	0	32880	
1776	0	32829	
1777	0	32960	
1778	0	32981	
1779	0	32780	
1780	0	32676	
1781	0	32656	
1782	0	32709	
1783	0	32716	
1784	0	32612	
1785	0	32516	
1786	0	32622	
1787	0	32740	
1788	0	32800	
1789	0	32948	
1790	0	32908	
1791	0	32920	
1792	0	32888	
1793	0	32820	
1794	0	32820	
1795	0	32860	
1796	0	32844	
1797	0	32880	
1798	0	32844	
1799	0	32734	
1800	0	32670	
1801	0	32704	
1802	0	32744	
1803	0	32568	
1804	0	32696	
1805	0	32636	
1806	0	32740	
1807	0	32818	
1808	0	32834	
1809	0	32742	
1810	0	32816	
1811	0	32832	
1812	0	32848	
1813	0	32824	
1814	0	32844	
1815	0	32844	
1816	0	32860	
1817	0	32788	
1818	0	32789	
1819	0	32693	
1820	0	32764	
1821	0	32716	
1822	0	32724	
1823	0	32636	
1824	0	32694	
1825	0	32680	
1826	0	32716	
1827	0	32752	
1828	0	32718	
1829	0	32768	
1830	0	32940	
1831	0	32856	
1832	0	32924	
1833	0	32796	
1834	0	32796	
1835	0	32768	
1836	0	32916	
1837	0	33096	
1838	0	32920	
1839	0	32716	
1840	0	32622	
1841	0	32676	
1842	0	32756	
1843	0	32680	
1844	0	32576	
1845	0	32631	
1846	0	32637	
1847	0	32840	
1848	0	32828	
1849	0	32856	
1850	0	32830	
1851	0	32756	
1852	0	32708	
1853	0	32804	
1854	0	32832	
1855	0	32817	
1856	0	32828	
1857	0	32876	
1858	0	32877	
1859	0	32752	
1860	0	32788	
1861	0	32617	
1862	0	32684	
1863	0	32684	
1864	0	32676	
1865	0	32661	
1866	0	32648	
1867	0	32952	
1868	0	32908	
1869	0	32864	
1870	0	32764	
1871	0	32612	
1872	0	32628	
1873	0	32764	
1874	0	32832	
1875	0	32888	
1876	0	33064	
1877	0	33013	
1878	0	32884	
1879	0	32748	
1880	0	32687	
1881	0	32684	
1882	0	32610	
1883	0	32647	
1884	0	32688	
1885	0	32608	
1886	0	32676	
1887	0	32800	
1888	0	32877	
1889	0	32912	
1890	0	32780	
1891	0	32880	
1892	0	32774	
1893	0	32813	
1894	0	32832	
1895	0	32860	
1896	0	32872	
1897	0	32928	
1898	0	32884	
1899	0	32676	
1900	0	32654	
1901	0	32692	
1902	0	32784	
1903	0	32688	
1904	0	32624	
1905	0	32564	
1906	0	32662	
1907	0	32784	
1908	0	32773	
1909	0	32800	
1910	0	32832	
1911	0	32916	
1912	0	32860	
1913	0	32856	
1914	0	32872	
1915	0	32888	
1916	0	32822	
1917	0	32840	
1918	0	32872	
1919	0	32704	
1920	0	32725	
1921	0	32700	
1922	0	32673	
1923	0	32704	
1924	0	32684	
1925	0	32632	
1926	0	32716	
1927	0	32796	
1928	0	32724	
1929	0	32692	
1930	0	32808	
1931	0	32892	
1932	0	32828	
1933	0	32932	
1934	0	32960	
1935	0	32900	
1936	0	32872	
1937	0	32752	
1938	0	32832	
1939	0	32812	
1940	0	32744	
1941	0	32708	
1942	0	32660	
1943	0	32588	
1944	0	32600	
1945	0	32580	
1946	0	32604	
1947	0	32704	
1948	0	32846	
1949	0	32868	
1950	0	32864	
1951	0	32868	
1952	0	32908	
1953	0	32894	
1954	0	32880	
1955	0	32863	
1956	0	32940	
1957	0	32912	
1958	0	33024	
1959	0	32796	
1960	0	32714	
1961	0	32657	
1962	0	32580	
1963	0	32564	
1964	0	32588	
1965	0	32632	
1966	0	32700	
1967	0	32772	
1968	0	32757	
1969	0	32848	
1970	0	32836	
1971	0	32836	
1972	0	32804	
1973	0	32804	
1974	0	32855	
1975	0	32884	
1976	0	32904	
1977	0	33084	
1978	0	32884	
1979	0	32692	
1980	0	32564	
1981	0	32578	
1982	0	32640	
1983	0	32636	
1984	0	32660	
1985	0	32668	
1986	0	32732	
1987	0	32748	
1988	0	32820	
1989	0	32820	
1990	0	32868	
1991	0	32864	
1992	0	32864	
1993	0	32840	
1994	0	32820	
1995	0	32888	
1996	0	32840	
1997	0	32900	
1998	0	32845	
1999	0	32844	
2000	0	32724	
2001	0	32656	
2002	0	32692	
2003	0	32680	
2004	0	32680	
2005	0	32628	
2006	0	32640	
2007	0	32782	
2008	0	32768	
2009	0	32892	
2010	0	32944	
2011	0	33001	
2012	0	32864	
2013	0	32732	
2014	0	32664	
2015	0	32692	
2016	0	32812	
2017	0	32796	
2018	0	33004	
2019	0	32992	
2020	0	32852	
2021	0	32636	
2022	0	32556	
2023	0	32612	
2024	0	32584	
2025	0	32580	
2026	0	32704	
2027	0	32864	
2028	0	32836	
2029	0	32757	
2030	0	32772	
2031	0	32828	
2032	0	32844	
2033	0	32888	
2034	0	32900	
2035	0	32926	
2036	0	32945	
2037	0	32964	
2038	0	32796	
2039	0	32749	
2040	0	32676	
2041	0	32598	
2042	0	32612	
2043	0	32676	
2044	0	32644	
2045	0	32676	
2046	0	32612	
2047	0	32752	
2048	0	32800	
2049	0	32868	
2050	0	32864	
2051	0	32860	
2052	0	32869	
2053	0	32856	
2054	0	32884	
2055	0	32856	
2056	0	32888	
2057	0	32952	
2058	0	32853	
2059	0	32768	
2060	0	32704	
2061	0	32696	
2062	0	32676	
2063	0	32646	
2064	0	32697	
2065	0	32716	
2066	0	32664	
2067	0	32696	
2068	0	32804	
2069	0	32844	
2070	0	32900	
2071	0	32885	
2072	0	32812	
2073	0	32864	
2074	0	32880	
2075	0	32832	
2076	0	32876	
2077	0	32848	
2078	0	32837	
2079	0	32820	
2080	0	32717	
2081	0	32660	
2082	0	32676	
2083	0	32596	
2084	0	32608	
2085	0	32660	
2086	0	32668	
2087	0	32768	
2088	0	32860	
2089	0	32820	
2090	0	32952	
2091	0	32940	
2092	0	32884	
2093	0	32788	
2094	0	32704	
2095	0	32840	
2096	0	32829	
2097	0	32872	
2098	0	32856	
2099	0	32804	
2100	0	32870	
2101	0	32816	
2102	0	32708	
2103	0	32580	
2104	0	32549	
2105	0	32624	
2106	0	32753	
2107	0	32684	
2108	0	32788	
2109	0	32876	
2110	0	32860	
2111	0	32836	
2112	0	32812	
2113	0	32870	
2114	0	32872	
2115	0	32828	
2116	0	32868	
2117	0	33008	
2118	0	32909	
2119	0	32796	
2120	0	32700	
2121	0	32640	
2122	0	32652	
2123	0	32612	
2124	0	32624	
2125	0	32648	
2126	0	32656	
2127	0	32704	
2128	0	32828	
2129	0	32792	
2130	0	32876	
2131	0	32988	
2132	0	32740	
2133	0	32760	
2134	0	32792	
2135	0	32928	
2136	0	33024	
2137	0	32884	
2138	0	32844	
2139	0	32728	
2140	0	32584	
2141	0	32628	
2142	0	32688	
2143	0	32720	
2144	0	32756	
2145	0	32704	
2146	0	32740	
2147	0	32645	
2148	0	32799	
2149	0	32756	
2150	0	32829	
2151	0	32908	
2152	0	32840	
2153	0	32832	
2154	0	32892	
2155	0	32844	
2156	0	32884	
2157	0	32876	
2158	0	32824	
2159	0	32786	
2160	0	32712	
2161	0	32636	
2162	0	32664	
2163	0	32692	
2164	0	32668	
2165	0	32648	
2166	0	32746	
2167	0	32744	
2168	0	32796	
2169	0	32782	
2170	0	32780	
2171	0	32873	
2172	0	32888	
2173	0	32932	
2174	0	32917	
2175	0	32932	
2176	0	32868	
2177	0	32892	
2178	0	32866	
2179	0	32716	
2180	0	32564	
2181	0	32612	
2182	0	32692	
2183	0	32664	
2184	0	32692	
2185	0	32684	
2186	0	32764	
2187	0	32840	
2188	0	32764	
2189	0	32868	
2190	0	32836	
2191	0	32836	
2192	0	32925	
2193	0	32812	
2194	0	32860	
2195	0	32868	
2196	0	32800	
2197	0	32856	
2198	0	32784	
2199	0	32813	
2200	0	32792	
2201	0	32764	
2202	0	32749	
2203	0	32636	
2204	0	32693	
2205	0	32632	
2206	0	32628	
2207	0	32672	
2208	0	32712	
2209	0	32860	
2210	0	32812	
2211	0	32800	
2212	0	32800	
2213	0	32892	
2214	0	33016	
2215	0	32888	
2216	0	32812	
2217	0	32708	
2218	0	32812	
2219	0	32820	
2220	0	32832	
2221	0	32789	
2222	0	32788	
2223	0	32672	
2224	0	32610	
2225	0	32600	
2226	0	32664	
2227	0	32741	
2228	0	32805	
2229	0	32796	
2230	0	32872	
2231	0	32832	
2232	0	32788	
2233	0	32728	
2234	0	32828	
2235	0	32844	
2236	0	32848	
2237	0	32912	
2238	0	32900	
2239	0	32788	
2240	0	32679	
2241	0	32652	
2242	0	32740	
2243	0	32692	
2244	0	32632	
2245	0	32653	
2246	0	32633	
2247	0	32680	
2248	0	32708	
2249	0	32711	
2250	0	32892	
2251	0	32980	
2252	0	32910	
2253	0	32948	
2254	0	32948	
2255	0	33026	
2256	0	33008	
2257	0	32965	
2258	0	32840	
2259	0	32772	
2260	0	32680	
2261	0	32652	
2262	0	32688	
2263	0	32748	
2264	0	32708	
2265	0	32676	
2266	0	32749	
2267	0	32832	
2268	0	32772	
2269	0	32812	
2270	0	32812	
2271	0	32840	
2272	0	32808	
2273	0	32792	
2274	0	32813	
2275	0	32844	
2276	0	32896	
2277	0	32836	
2278	0	32772	
2279	0	32758	
2280	0	32760	
2281	0	32806	
2282	0	32663	
2283	0	32548	
2284	0	32584	
2285	0	32596	
2286	0	32661	
2287	0	32758	
2288	0	32812	
2289	0	32828	
2290	0	32936	
2291	0	32924	
2292	0	32784	
2293	0	32820	
2294	0	32800	
2295	0	32900	
2296	0	32836	
2297	0	32881	
2298	0	32857	
2299	0	32752	
2300	0	32696	
2301	0	32596	
2302	0	32668	
2303	0	32608	
2304	0	32736	
2305	0	32764	
2306	0	32716	
2307	0	32724	
2308	0	32744	
2309	0	32792	
2310	0	33044	
2311	0	32924	
2312	0	32832	
2313	0	32804	
2314	0	32784	
2315	0	32916	
2316	0	32974	
2317	0	32846	
2318	0	32832	
2319	0	32668	
2320	0	32677	
2321	0	32656	
2322	0	32727	
2323	0	32708	
2324	0	32720	
2325	0	32656	
2326	0	32672	
2327	0	32718	
2328	0	32820	
2329	0	32902	
2330	0	32812	
2331	0	32892	
2332	0	32782	
2333	0	32760	
2334	0	32872	
2335	0	32854	
2336	0	32824	
2337	0	32944	
2338	0	32960	
2339	0	32767	
2340	0	32676	
2341	0	32628	
2342	0	32700	
2343	0	32696	
2344	0	32684	
2345	0	32676	
2346	0	32646	
2347	0	32708	
2348	0	32704	
2349	0	32798	
2350	0	32824	
2351	0	32808	
2352	0	32912	
2353	0	32840	
2354	0	32832	
2355	0	32912	
2356	0	32904	
2357	0	33000	
2358	0	32996	
2359	0	32873	
2360	0	32801	
2361	0	32648	
2362	0	32528	
2363	0	32576	
2364	0	32554	
2365	0	32544	
2366	0	32644	
2367	0	32784	
2368	0	32888	
2369	0	32964	
2370	0	32860	
2371	0	32836	
2372	0	32948	
2373	0	32812	
2374	0	32880	
2375	0	32756	
2376	0	32752	
2377	0	32740	
2378	0	32876	
2379	0	32824	
2380	0	32812	
2381	0	32784	
2382	0	32712	
2383	0	32661	
2384	0	32676	
2385	0	32640	
2386	0	32680	
2387	0	32724	
2388	0	32824	
2389	0	32868	
2390	0	32784	
2391	0	32896	
2392	0	32892	
2393	0	32980	
2394	0	32884	
2395	0	32788	
2396	0	32760	
2397	0	32868	
2398	0	32856	
2399	0	32768	
2400	0	32756	
2401	0	32768	
2402	0	32688	
2403	0	32672	
2404	0	32516	
2405	0	32620	
2406	0	32660	
2407	0	32760	
2408	0	32864	
2409	0	32820	
2410	0	32848	
2411	0	32792	
2412	0	32816	
2413	0	32900	
2414	0	32920	
2415	0	32845	
2416	0	32820	
2417	0	32900	
2418	0	32848	
2419	0	32780	
2420	0	32764	
2421	0	32708	
2422	0	32708	
2423	0	32886	
2424	0	32640	
2425	0	32692	
2426	0	32604	
2427	0	32680	
2428	0	32713	
2429	0	32860	
2430	0	32832	
2431	0	32924	
2432	0	32908	
2433	0	32802	
2434	0	32800	
2435	0	32972	
2436	0	32820	
2437	0	32806	
2438	0	32808	
2439	0	32856	
2440	0	32722	
2441	0	32724	
2442	0	32644	
2443	0	32512	
2444	0	32596	
2445	0	32620	
2446	0	32772	
2447	0	32808	
2448	0	32804	
2449	0	32848	
2450	0	32864	
2451	0	32800	
2452	0	32812	
2453	0	32868	
2454	0	32860	
2455	0	32916	
2456	0	32852	
2457	0	32884	
2458	0	32876	
2459	0	32768	
2460	0	32720	
2461	0	32692	
2462	0	32580	
2463	0	32676	
2464	0	32544	
2465	0	32640	
2466	0	32733	
2467	0	32808	
2468	0	32980	
2469	0	32868	
2470	0	32796	
2471	0	32836	
2472	0	32836	
2473	0	32856	
2474	0	32792	
2475	0	32768	
2476	0	32824	
2477	0	32788	
2478	0	32832	
2479	0	32936	
2480	0	32785	
2481	0	32636	
2482	0	32636	
2483	0	32660	
2484	0	32736	
2485	0	32724	
2486	0	32732	
2487	0	32784	
2488	0	32764	
2489	0	32804	
2490	0	32864	
2491	0	32775	
2492	0	32804	
2493	0	32908	
2494	0	32960	
2495	0	32844	
2496	0	32748	
2497	0	32884	
2498	0	32788	
2499	0	32712	
2500	0	32872	
2501	0	32764	
2502	0	32724	
2503	0	32669	
2504	0	32580	
2505	0	32652	
2506	0	32728	
2507	0	32736	
2508	0	32792	
2509	0	32808	
2510	0	32812	
2511	0	32892	
2512	0	32912	
2513	0	32884	
2514	0	32920	
2515	0	32816	
2516	0	32800	
2517	0	32924	
2518	0	32904	
2519	0	32790	
2520	0	32652	
2521	0	32664	
2522	0	32668	
2523	0	32616	
2524	0	32664	
2525	0	32616	
2526	0	32680	
2527	0	32708	
2528	0	32740	
2529	0	32800	
2530	0	32908	
2531	0	32864	
2532	0	32848	
2533	0	32817	
2534	0	32920	
2535	0	32832	
2536	0	32884	
2537	0	32894	
2538	0	32797	
2539	0	32737	
2540	0	32805	
2541	0	32759	
2542	0	32697	
2543	0	32776	
2544	0	32596	
2545	0	32588	
2546	0	32648	
2547	0	32676	
2548	0	32713	
2549	0	32844	
2550	0	32820	
2551	0	32900	
2552	0	32932	
2553	0	32869	
2554	0	32864	
2555	0	32812	
2556	0	32764	
2557	0	32804	
2558	0	32876	
2559	0	32790	
2560	0	32775	
2561	0	32692	
2562	0	32752	
2563	0	32656	
2564	0	32685	
2565	0	32704	
2566	0	32612	
2567	0	32748	
2568	0	32790	
2569	0	32748	
2570	0	32900	
2571	0	32832	
2572	0	32892	
2573	0	32868	
2574	0	32836	
2575	0	32876	
2576	0	32836	
2577	0	32980	
2578	0	32964	
2579	0	32836	
2580	0	32621	
2581	0	32663	
2582	0	32657	
2583	0	32685	
2584	0	32586	
2585	0	32637	
2586	0	32676	
2587	0	32712	
2588	0	32836	
2589	0	33068	
2590	0	32869	
2591	0	32876	
2592	0	32712	
2593	0	32772	
2594	0	32692	
2595	0	32856	
2596	0	32868	
2597	0	32860	
2598	0	32852	
2599	0	32972	
2600	0	32784	
2601	0	32660	
2602	0	32664	
2603	0	32636	
2604	0	32597	
2605	0	32552	
2606	0	32652	
2607	0	32784	
2608	0	32781	
2609	0	32908	
2610	0	32940	
2611	0	32822	
2612	0	32816	
2613	0	32856	
2614	0	32864	
2615	0	32813	
2616	0	32844	
2617	0	32816	
2618	0	32948	
2619	0	32812	
2620	0	32700	
2621	0	32632	
2622	0	32676	
2623	0	32736	
2624	0	32676	
2625	0	32564	
2626	0	32660	
2627	0	32768	
2628	0	32828	
2629	0	32876	
2630	0	32892	
2631	0	32872	
2632	0	32812	
2633	0	32868	
2634	0	32812	
2635	0	33004	
2636	0	32877	
2637	0	32884	
2638	0	32884	
2639	0	32620	
2640	0	32724	
2641	0	32645	
2642	0	32622	
2643	0	32664	
2644	0	32708	
2645	0	32648	
2646	0	32752	
2647	0	32708	
2648	0	32801	
2649	0	32815	
2650	0	32900	
2651	0	32872	
2652	0	32844	
2653	0	32808	
2654	0	32932	
2655	0	32908	
2656	0	32884	
2657	0	32876	
2658	0	32832	
2659	0	32764	
2660	0	32728	
2661	0	32668	
2662	0	32588	
2663	0	32672	
2664	0	32660	
2665	0	32680	
2666	0	32796	
2667	0	32706	
2668	0	32876	
2669	0	32908	
2670	0	32816	
2671	0	32784	
2672	0	32728	
2673	0	32756	
2674	0	32856	
2675	0	32888	
2676	0	32860	
2677	0	32828	
2678	0	32878	
2679	0	32686	
2680	0	32820	
2681	0	32812	
2682	0	32764	
2683	0	32742	
2684	0	32585	
2685	0	32640	
2686	0	32664	
2687	0	32720	
2688	0	32768	
2689	0	32749	
2690	0	32856	
2691	0	32852	
2692	0	32813	
2693	0	32826	
2694	0	32832	
2695	0	32913	
2696	0	32804	
2697	0	32908	
2698	0	32925	
2699	0	32870	
2700	0	32768	
2701	0	32684	
2702	0	32742	
2703	0	32644	
2704	0	32648	
2705	0	32681	
2706	0	32632	
2707	0	32725	
2708	0	32840	
2709	0	32765	
2710	0	32772	
2711	0	32800	
2712	0	32800	
2713	0	32762	
2714	0	32916	
2715	0	32925	
2716	0	32862	
2717	0	32864	
2718	0	32920	
2719	0	32748	
2720	0	32756	
2721	0	32660	
2722	0	32684	
2723	0	32793	
2724	0	32768	
2725	0	32706	
2726	0	32604	
2727	0	32648	
2728	0	32716	
2729	0	32810	
2730	0	32856	
2731	0	32857	
2732	0	32892	
2733	0	32894	
2734	0	32904	
2735	0	32800	
2736	0	32781	
2737	0	32733	
2738	0	32828	
2739	0	32773	
2740	0	32772	
2741	0	32696	
2742	0	32724	
2743	0	32693	
2744	0	32652	
2745	0	32633	
2746	0	32644	
2747	0	32709	
2748	0	32836	
2749	0	32864	
2750	0	32872	
2751	0	32964	
2752	0	32772	
2753	0	32684	
2754	0	32748	
2755	0	32880	
2756	0	32788	
2757	0	32832	
2758	0	32872	
2759	0	32860	
2760	0	32788	
2761	0	32656	
2762	0	32650	
2763	0	32844	
2764	0	32721	
2765	0	32736	
2766	0	32756	
2767	0	32664	
2768	0	32660	
2769	0	32785	
2770	0	32872	
2771	0	32836	
2772	0	32838	
2773	0	32868	
2774	0	32892	
2775	0	32834	
2776	0	32820	
2777	0	32884	
2778	0	32856	
2779	0	32856	
2780	0	32652	
2781	0	32792	
2782	0	32744	
2783	0	32740	
2784	0	32596	
2785	0	32588	
2786	0	32648	
2787	0	32772	
2788	0	32844	
2789	0	32895	
2790	0	32860	
2791	0	32884	
2792	0	32844	
2793	0	32716	
2794	0	32706	
2795	0	32808	
2796	0	32856	
2797	0	32852	
2798	0	32920	
2799	0	32932	
2800	0	32864	
2801	0	32668	
2802	0	32600	
2803	0	32680	
2804	0	32636	
2805	0	32632	
2806	0	32676	
2807	0	32764	
2808	0	32812	
2809	0	32848	
2810	0	32884	
2811	0	32886	
2812	0	32852	
2813	0	32748	
2814	0	32800	
2815	0	32932	
2816	0	32888	
2817	0	32936	
2818	0	32908	
2819	0	32764	
2820	0	32708	
2821	0	32600	
2822	0	32700	
2823	0	32720	
2824	0	32652	
2825	0	32628	
2826	0	32736	
2827	0	32744	
2828	0	32808	
2829	0	32816	
2830	0	32752	
2831	0	32728	
2832	0	32857	
2833	0	32908	
2834	0	32844	
2835	0	32895	
2836	0	32804	
2837	0	32808	
2838	0	32780	
2839	0	32808	
2840	0	32908	
2841	0	32900	
2842	0	32740	
2843	0	32615	
2844	0	32608	
2845	0	32612	
2846	0	32716	
2847	0	32828	
2848	0	32884	
2849	0	32848	
2850	0	32896	
2851	0	32752	
2852	0	32772	
2853	0	32804	
2854	0	33008	
2855	0	32936	
2856	0	32840	
2857	0	32728	
2858	0	32665	
2859	0	32776	
2860	0	32832	
2861	0	32720	
2862	0	32720	
2863	0	32672	
2864	0	32620	
2865	0	32508	
2866	0	32616	
2867	0	32704	
2868	0	32836	
2869	0	32892	
2870	0	32856	
2871	0	32900	
2872	0	32948	
2873	0	32972	
2874	0	32936	
2875	0	32908	
2876	0	32756	
2877	0	32768	
2878	0	32821	
2879	0	32756	
2880	0	32740	
2881	0	32668	
2882	0	32708	
2883	0	32688	
2884	0	32662	
2885	0	32604	
2886	0	32596	
2887	0	32680	
2888	0	32764	
2889	0	32806	
2890	0	32832	
2891	0	32864	
2892	0	32848	
2893	0	32756	
2894	0	32861	
2895	0	32884	
2896	0	32840	
2897	0	32804	
2898	0	32796	
2899	0	32872	
2900	0	32684	
2901	0	32656	
2902	0	32644	
2903	0	32684	
2904	0	32640	
2905	0	32704	
2906	0	32661	
2907	0	32692	
2908	0	32712	
2909	0	32812	
2910	0	32870	
2911	0	32908	
2912	0	32868	
2913	0	32892	
2914	0	32884	
2915	0	32954	
2916	0	32913	
2917	0	32924	
2918	0	32936	
2919	0	32868	
2920	0	32820	
2921	0	32760	
2922	0	32764	
2923	0	32676	
2924	0	32614	
2925	0	32596	
2926	0	32596	
2927	0	32637	
2928	0	32848	
2929	0	32940	
2930	0	32996	
2931	0	32908	
2932	0	32848	
2933	0	32720	
2934	0	32692	
2935	0	32824	
2936	0	32862	
2937	0	32893	
2938	0	32824	
2939	0	32796	
2940	0	32752	
2941	0	32757	
2942	0	32736	
2943	0	32700	
2944	0	32616	
2945	0	32572	
2946	0	32600	
2947	0	32725	
2948	0	32860	
2949	0	32796	
2950	0	32736	
2951	0	32772	
2952	0	32904	
2953	0	32956	
2954	0	32820	
2955	0	32832	
2956	0	32712	
2957	0	32904	
2958	0	33133	
2959	0	32944	
2960	0	32680	
2961	0	32628	
2962	0	32726	
2963	0	32772	
2964	0	32689	
2965	0	32624	
2966	0	32572	
2967	0	32664	
2968	0	32748	
2969	0	32808	
2970	0	32895	
2971	0	32788	
2972	0	32904	
2973	0	32812	
2974	0	32854	
2975	0	32893	
2976	0	32868	
2977	0	32848	
2978	0	32830	
2979	0	32824	
2980	0	32760	
2981	0	32728	
2982	0	32704	
2983	0	32644	
2984	0	32704	
2985	0	32658	
2986	0	32670	
2987	0	32725	
2988	0	32748	
2989	0	32752	
2990	0	32804	
2991	0	32846	
2992	0	32868	
2993	0	32856	
2994	0	32985	
2995	0	32964	
2996	0	32789	
2997	0	32824	
2998	0	32812	
2999	0	32804	
3000	0	32762	
3001	0	32668	
3002	0	32716	
3003	0	32740	
3004	0	32684	
3005	0	32608	
3006	0	32633	
3007	0	32720	
3008	0	32720	
3009	0	32864	
3010	0	32860	
3011	0	32974	
3012	0	32936	
3013	0	32810	
3014	0	32826	
3015	0	32736	
3016	0	32756	
3017	0	32732	
3018	0	32820	
3019	0	32820	
3020	0	32688	
3021	0	32760	
3022	0	32858	
3023	0	32760	
3024	0	32639	
3025	0	32568	
3026	0	32605	
3027	0	32676	
3028	0	32772	
3029	0	32840	
3030	0	32884	
3031	0	32830	
3032	0	32824	
3033	0	32836	
3034	0	32950	
3035	0	32880	
3036	0	32836	
3037	0	32880	
3038	0	32908	
3039	0	32888	
3040	0	32741	
3041	0	32776	
3042	0	32708	
3043	0	32684	
3044	0	32636	
3045	0	32592	
3046	0	32768	
3047	0	32636	
3048	0	32732	
3049	0	32816	
3050	0	32780	
3051	0	32780	
3052	0	32773	
3053	0	32765	
3054	0	32800	
3055	0	32916	
3056	0	32840	
3057	0	32848	
3058	0	32772	
3059	0	32832	
3060	0	32900	
3061	0	32748	
3062	0	32700	
3063	0	32757	
3064	0	32709	
3065	0	32604	
3066	0	32548	
3067	0	32672	
3068	0	32650	
3069	0	32876	
3070	0	32852	
3071	0	32882	
3072	0	32880	
3073	0	32920	
3074	0	32864	
3075	0	32868	
3076	0	32834	
3077	0	32856	
3078	0	32942	
3079	0	32804	
3080	0	32696	
3081	0	32700	
3082	0	32684	
3083	0	32630	
3084	0	32569	
3085	0	32613	
3086	0	32700	
3087	0	32864	
3088	0	32980	
3089	0	32860	
3090	0	32832	
3091	0	32772	
3092	0	32748	
3093	0	32748	
3094	0	32656	
3095	0	32900	
3096	0	32901	
3097	0	32879	
3098	0	32976	
3099	0	32904	
3100	0	32742	
3101	0	32688	
3102	0	32676	
3103	0	32604	
3104	0	32652	
3105	0	32664	
3106	0	32732	
3107	0	32756	
3108	0	32807	
3109	0	32804	
3110	0	32868	
3111	0	32848	
3112	0	32901	
3113	0	32684	
3114	0	32800	
3115	0	32872	
3116	0	32876	
3117	0	32940	
3118	0	32942	
3119	0	32880	
3120	0	32720	
3121	0	32560	
3122	0	32636	
3123	0	32774	
3124	0	32689	
3125	0	32636	
3126	0	32597	
3127	0	32628	
3128	0	32768	
3129	0	32912	
3130	0	33020	
3131	0	32957	
3132	0	32724	
3133	0	32702	
3134	0	32780	
3135	0	32824	
3136	0	32833	
3137	0	32828	
3138	0	32880	
3139	0	32916	
3140	0	32836	
3141	0	32748	
3142	0	32676	
3143	0	32692	
3144	0	32617	
3145	0	32660	
3146	0	32612	
3147	0	32700	
3148	0	32832	
3149	0	32878	
3150	0	32884	
3151	0	32804	
3152	0	32748	
3153	0	32868	
3154	0	32796	
3155	0	32901	
3156	0	32844	
3157	0	32836	
3158	0	32873	
3159	0	32804	
3160	0	32716	
3161	0	32724	
3162	0	32728	
3163	0	32784	
3164	0	32741	
3165	0	32702	
3166	0	32720	
3167	0	32729	
3168	0	32740	
3169	0	32724	
3170	0	32796	
3171	0	32864	
3172	0	32860	
3173	0	32892	
3174	0	32903	
3175	0	32818	
3176	0	32828	
3177	0	32808	
3178	0	32828	
3179	0	32852	
3180	0	32736	
3181	0	32688	
3182	0	32704	
3183	0	32792	
3184	0	32700	
3185	0	32666	
3186	0	32612	
3187	0	32733	
3188	0	32840	
3189	0	32886	
3190	0	32772	
3191	0	32772	
3192	0	32780	
3193	0	32952	
3194	0	32840	
3195	0	32808	
3196	0	32848	
3197	0	32788	
3198	0	32892	
3199	0	32864	
3200	0	32753	
3201	0	32752	
3202	0	32708	
3203	0	32689	
3204	0	32700	
3205	0	32614	
3206	0	32668	
3207	0	32648	
3208	0	32784	
3209	0	32778	
3210	0	32848	
3211	0	32840	
3212	0	32856	
3213	0	32780	
3214	0	32880	
3215	0	32940	
3216	0	32808	
3217	0	32808	
3218	0	32848	
3219	0	32888	
3220	0	32829	
3221	0	32756	
3222	0	32860	
3223	0	32772	
3224	0	32632	
3225	0	32486	
3226	0	32556	
3227	0	32656	
3228	0	32717	
3229	0	32762	
3230	0	32724	
3231	0	32800	
3232	0	32876	
3233	0	32892	
3234	0	32880	
3235	0	32860	
3236	0	32848	
3237	0	32844	
3238	0	32857	
3239	0	32808	
3240	0	32804	
3241	0	32688	
3242	0	32724	
3243	0	32816	
3244	0	32696	
3245	0	32560	
3246	0	32592	
3247	0	32604	
3248	0	32780	
3249	0	32916	
3250	0	32828	
3251	0	32856	
3252	0	32872	
3253	0	32804	
3254	0	32788	
3255	0	32807	
3256	0	32832	
3257	0	32816	
3258	0	32897	
3259	0	32872	
3260	0	32756	
3261	0	32668	
3262	0	32704	
3263	0	32636	
3264	0	32592	
3265	0	32630	
3266	0	32648	
3267	0	32764	
3268	0	32852	
3269	0	32904	
3270	0	32888	
3271	0	32788	
3272	0	32856	
3273	0	32800	
3274	0	32720	
3275	0	32836	
3276	0	32828	
3277	0	32868	
3278	0	32908	
3279	0	32824	
3280	0	32808	
3281	0	32780	
3282	0	32776	
3283	0	32716	
3284	0	32772	
3285	0	32621	
3286	0	32668	
3287	0	32532	
3288	0	32712	
3289	0	32709	
3290	0	32894	
3291	0	32942	
3292	0	32956	
3293	0	32812	
3294	0	32788	
3295	0	32880	
3296	0	32832	
3297	0	32808	
3298	0	32912	
3299	0	32884	
3300	0	32780	
3301	0	32700	
3302	0	32628	
3303	0	32592	
3304	0	32624	
3305	0	32668	
3306	0	32612	
3307	0	32728	
3308	0	32845	
3309	0	32844	
3310	0	32868	
3311	0	32884	
3312	0	32872	
3313	0	32896	
3314	0	32854	
3315	0	32816	
3316	0	32732	
3317	0	32816	
3318	0	32952	
3319	0	32864	
3320	0	32724	
3321	0	32629	
3322	0	32684	
3323	0	32660	
3324	0	32678	
3325	0	32669	
3326	0	32616	
3327	0	32728	
3328	0	32860	
3329	0	32824	
3330	0	32816	
3331	0	32789	
3332	0	32852	
3333	0	32872	
3334	0	32825	
3335	0	32812	
3336	0	32860	
3337	0	33078	
3338	0	32992	
3339	0	32840	
3340	0	32688	
3341	0	32576	
3342	0	32608	
3343	0	32660	
3344	0	32702	
3345	0	32776	
3346	0	32708	
3347	0	32588	
3348	0	32728	
3349	0	32824	
3350	0	32728	
3351	0	32821	
3352	0	32873	
3353	0	32760	
3354	0	32856	
3355	0	32888	
3356	0	32969	
3357	0	32980	
3358	0	32884	
3359	0	32892	
3360	0	32888	
3361	0	32672	
3362	0	32652	
3363	0	32652	
3364	0	32676	
3365	0	32600	
3366	0	32672	
3367	0	32664	
3368	0	32774	
3369	0	32804	
3370	0	32848	
3371	0	32856	
3372	0	32816	
3373	0	32840	
3374	0	32872	
3375	0	32856	
3376	0	32853	
3377	0	32932	
3378	0	32909	
3379	0	32768	
3380	0	32740	
3381	0	32736	
3382	0	32696	
3383	0	32672	
3384	0	32700	
3385	0	32613	
3386	0	32564	
3387	0	32644	
3388	0	32752	
3389	0	32820	
3390	0	32864	
3391	0	32881	
3392	0	32878	
3393	0	32817	
3394	0	32920	
3395	0	32886	
3396	0	32864	
3397	0	32868	
3398	0	32976	
3399	0	32868	
3400	0	32732	
3401	0	32676	
3402	0	32749	
3403	0	32705	
3404	0	32628	
3405	0	32504	
3406	0	32560	
3407	0	32688	
3408	0	32840	
3409	0	32862	
3410	0	32836	
3411	0	32829	
3412	0	32884	
3413	0	32848	
3414	0	32828	
3415	0	32921	
3416	0	32948	
3417	0	32952	
3418	0	32864	
3419	0	32752	
3420	0	32676	
3421	0	32576	
3422	0	32794	
3423	0	32736	
3424	0	32672	
3425	0	32556	
3426	0	32638	
3427	0	32720	
3428	0	32708	
3429	0	32772	
3430	0	32872	
3431	0	32984	
3432	0	32861	
3433	0	32780	
3434	0	32832	
3435	0	32798	
3436	0	32904	
3437	0	32812	
3438	0	32824	
3439	0	32760	
3440	0	32848	
3441	0	32741	
3442	0	32632	
3443	0	32732	
3444	0	32740	
3445	0	32704	
3446	0	32646	
3447	0	32756	
3448	0	32776	
3449	0	32812	
3450	0	32760	
3451	0	32736	
3452	0	32908	
3453	0	32824	
3454	0	32772	
3455	0	32856	
3456	0	32860	
3457	0	32816	
3458	0	32856	
3459	0	32848	
3460	0	32728	
3461	0	32820	
3462	0	32725	
3463	0	32712	
3464	0	32736	
3465	0	32612	
3466	0	32604	
3467	0	32620	
3468	0	32740	
3469	0	32860	
3470	0	32932	
3471	0	32876	
3472	0	32820	
3473	0	32836	
3474	0	32800	
3475	0	32840	
3476	0	32908	
3477	0	32852	
3478	0	32885	
3479	0	32804	
3480	0	32768	
3481	0	32708	
3482	0	32721	
3483	0	32772	
3484	0	32676	
3485	0	32544	
3486	0	32660	
3487	0	32724	
3488	0	32732	
3489	0	32704	
3490	0	32836	
3491	0	32892	
3492	0	32892	
3493	0	32868	
3494	0	32925	
3495	0	32877	
3496	0	32808	
3497	0	32814	
3498	0	33024	
3499	0	32912	
3500	0	32724	
3501	0	32665	
3502	0	32628	
3503	0	32729	
3504	0	32664	
3505	0	32628	
3506	0	32616	
3507	0	32616	
3508	0	32679	
3509	0	32844	
3510	0	32808	
3511	0	32856	
3512	0	32861	
3513	0	32896	
3514	0	32820	
3515	0	32821	
3516	0	32808	
3517	0	32748	
3518	0	32920	
3519	0	32900	
3520	0	32741	
3521	0	32702	
3522	0	32685	
3523	0	32704	
3524	0	32676	
3525	0	32740	
3526	0	32556	
3527	0	32582	
3528	0	32616	
3529	0	32816	
3530	0	32889	
3531	0	32848	
3532	0	32864	
3533	0	32836	
3534	0	32856	
3535	0	32872	
3536	0	32908	
3537	0	32848	
3538	0	32940	
3539	0	32856	
3540	0	32864	
3541	0	32697	
3542	0	32636	
3543	0	32708	
3544	0	32652	
3545	0	32664	
3546	0	32652	
3547	0	32602	
3548	0	32716	
3549	0	32781	
3550	0	32892	
3551	0	32896	
3552	0	32848	
3553	0	32844	
3554	0	32744	
3555	0	32792	
3556	0	32864	
3557	0	32912	
3558	0	32916	
3559	0	32900	
3560	0	32845	
3561	0	32672	
3562	0	32713	
3563	0	32678	
3564	0	32652	
3565	0	32548	
3566	0	32540	
3567	0	32680	
3568	0	32795	
3569	0	32917	
3570	0	32862	
3571	0	32944	
3572	0	32838	
3573	0	32824	
3574	0	32876	
3575	0	32812	
3576	0	32800	
3577	0	32732	
3578	0	32836	
3579	0	32908	
3580	0	32832	
3581	0	32668	
3582	0	32504	
3583	0	32636	
3584	0	32668	
3585	0	32640	
3586	0	32624	
3587	0	32656	
3588	0	32812	
3589	0	32766	
3590	0	32760	
3591	0	32804	
3592	0	32842	
3593	0	32844	
3594	0	32868	
3595	0	32953	
3596	0	32916	
3597	0	32877	
3598	0	32968	
3599	0	32852	
3600	0	32885	
3601	0	32892	
3602	0	32772	
3603	0	32733	
3604	0	32696	
3605	0	32616	
3606	0	32608	
3607	0	32680	
3608	0	32728	
3609	0	32758	
3610	0	32888	
3611	0	32860	
3612	0	32840	
3613	0	32856	
3614	0	32992	
3615	0	32924	
3616	0	32928	
3617	0	32916	
3618	0	32940	
3619	0	32920	
3620	0	32597	
3621	0	32616	
3622	0	32700	
3623	0	32536	
3624	0	32608	
3625	0	32576	
3626	0	32600	
3627	0	32728	
3628	0	32828	
3629	0	32808	
3630	0	32880	
3631	0	32888	
3632	0	32848	
3633	0	32836	
3634	0	32724	
3635	0	32868	
3636	0	32864	
3637	0	32884	
3638	0	32824	
3639	0	32880	
3640	0	32768	
3641	0	32760	
3642	0	32688	
3643	0	32676	
3644	0	32608	
3645	0	32604	
3646	0	32648	
3647	0	32696	
3648	0	32712	
3649	0	32832	
3650	0	32852	
3651	0	32820	
3652	0	32876	
3653	0	32952	
3654	0	32864	
3655	0	32820	
3656	0	32932	
3657	0	32756	
3658	0	32806	
3659	0	32828	
3660	0	32820	
3661	0	32660	
3662	0	32768	
3663	0	32740	
3664	0	32700	
3665	0	32525	
3666	0	32564	
3667	0	32696	
3668	0	32800	
3669	0	32824	
3670	0	32865	
3671	0	32776	
3672	0	32790	
3673	0	32798	
3674	0	32920	
3675	0	32896	
3676	0	32876	
3677	0	32772	
3678	0	32886	
3679	0	32882	
3680	0	32860	
3681	0	32788	
3682	0	32680	
3683	0	32692	
3684	0	32676	
3685	0	32620	
3686	0	32576	
3687	0	32708	
3688	0	32770	
3689	0	32804	
3690	0	32877	
3691	0	32956	
3692	0	32876	
3693	0	32884	
3694	0	32796	
3695	0	32776	
3696	0	32760	
3697	0	32776	
3698	0	32902	
3699	0	32924	
3700	0	32896	
3701	0	33064	
3702	0	32884	
3703	0	32581	
3704	0	32468	
3705	0	32352	
3706	0	32492	
3707	0	32620	
3708	0	32796	
3709	0	32908	
3710	0	32892	
3711	0	32840	
3712	0	32924	
3713	0	32864	
3714	0	32816	
3715	0	32832	
3716	0	32772	
3717	0	32756	
3718	0	32912	
3719	0	32944	
3720	0	32840	
3721	0	32736	
3722	0	32652	
3723	0	32676	
3724	0	32656	
3725	0	32620	
3726	0	32640	
3727	0	32688	
3728	0	32706	
3729	0	32776	
3730	0	32776	
3731	0	32884	
3732	0	32836	
3733	0	32860	
3734	0	32900	
3735	0	32908	
3736	0	32812	
3737	0	32877	
3738	0	32908	
3739	0	32934	
3740	0	32864	
3741	0	32740	
3742	0	32698	
3743	0	32676	
3744	0	32688	
3745	0	32556	
3746	0	32588	
3747	0	32668	
3748	0	32708	
3749	0	32724	
3750	0	32844	
3751	0	32916	
3752	0	32840	
3753	0	32869	
3754	0	32892	
3755	0	32940	
3756	0	32892	
3757	0	32888	
3758	0	32789	
3759	0	32868	
3760	0	32736	
3761	0	32696	
3762	0	32693	
3763	0	32681	
3764	0	32724	
3765	0	32608	
3766	0	32668	
3767	0	32822	
3768	0	32846	
3769	0	32822	
3770	0	32756	
3771	0	32717	
3772	0	32788	
3773	0	32828	
3774	0	32768	
3775	0	32908	
3776	0	32828	
3777	0	32848	
3778	0	32861	
3779	0	32792	
3780	0	32820	
3781	0	32772	
3782	0	32700	
3783	0	32692	
3784	0	32636	
3785	0	32644	
3786	0	32608	
3787	0	32668	
3788	0	32736	
3789	0	32840	
3790	0	32876	
3791	0	32865	
3792	0	32852	
3793	0	32816	
3794	0	32878	
3795	0	32904	
3796	0	32856	
3797	0	32800	
3798	0	32856	
3799	0	32912	
3800	0	32792	
3801	0	32785	
3802	0	32774	
3803	0	32804	
3804	0	32705	
3805	0	32580	
3806	0	32448	
3807	0	32606	
3808	0	32704	
3809	0	32804	
3810	0	32812	
3811	0	32912	
3812	0	32836	
3813	0	32896	
3814	0	32973	
3815	0	32917	
3816	0	32836	
3817	0	32820	
3818	0	32836	
3819	0	32800	
3820	0	32804	
3821	0	32720	
3822	0	32684	
3823	0	32692	
3824	0	32696	
3825	0	32632	
3826	0	32676	
3827	0	32668	
3828	0	32750	
3829	0	32816	
3830	0	32798	
3831	0	32808	
3832	0	32820	
3833	0	32972	
3834	0	33072	
3835	0	32900	
3836	0	32704	
3837	0	32588	
3838	0	32704	
3839	0	32897	
3840	0	32832	
3841	0	32676	
3842	0	32740	
3843	0	32736	
3844	0	32660	
3845	0	32554	
3846	0	32544	
3847	0	32636	
3848	0	32865	
3849	0	32844	
3850	0	32832	
3851	0	32904	
3852	0	32828	
3853	0	32804	
3854	0	32894	
3855	0	32900	
3856	0	32852	
3857	0	32836	
3858	0	32880	
3859	0	32892	
3860	0	32840	
3861	0	32732	
3862	0	32684	
3863	0	32688	
3864	0	32718	
3865	0	32712	
3866	0	32744	
3867	0	32620	
3868	0	32636	
3869	0	32708	
3870	0	32783	
3871	0	32876	
3872	0	32816	
3873	0	32832	
3874	0	32872	
3875	0	32784	
3876	0	32892	
3877	0	32892	
3878	0	32864	
3879	0	32857	
3880	0	32848	
3881	0	32726	
3882	0	32696	
3883	0	32902	
3884	0	32744	
3885	0	32548	
3886	0	32408	
3887	0	32432	
3888	0	32692	
3889	0	32880	
3890	0	32908	
3891	0	32884	
3892	0	32780	
3893	0	32912	
3894	0	32872	
3895	0	32868	
3896	0	32829	
3897	0	32792	
3898	0	32828	
3899	0	32848	
3900	0	32877	
3901	0	32744	
3902	0	32724	
3903	0	32652	
3904	0	32648	
3905	0	32644	
3906	0	32668	
3907	0	32740	
3908	0	32804	
3909	0	32854	
3910	0	32784	
3911	0	32801	
3912	0	32892	
3913	0	32872	
3914	0	32868	
3915	0	32884	
3916	0	32782	
3917	0	32806	
3918	0	32900	
3919	0	32852	
3920	0	32820	
3921	0	32684	
3922	0	32664	
3923	0	32704	
3924	0	32660	
3925	0	32670	
3926	0	32836	
3927	0	32726	
3928	0	32726	
3929	0	32744	
3930	0	32797	
3931	0	32768	
3932	0	32808	
3933	0	32796	
3934	0	32796	
3935	0	32802	
3936	0	32850	
3937	0	32864	
3938	0	32869	
3939	0	32892	
3940	0	32804	
3941	0	32741	
3942	0	32716	
3943	0	32868	
3944	0	32736	
3945	0	32656	
3946	0	32568	
3947	0	32684	
3948	0	32684	
3949	0	32768	
3950	0	32808	
3951	0	32918	
3952	0	32848	
3953	0	32800	
3954	0	32696	
3955	0	32769	
3956	0	33024	
3957	0	33000	
3958	0	33094	
3959	0	32884	
3960	0	32704	
3961	0	32588	
3962	0	32736	
3963	0	32660	
3964	0	32628	
3965	0	32560	
3966	0	32576	
3967	0	32720	
3968	0	32708	
3969	0	32732	
3970	0	32821	
3971	0	32933	
3972	0	32908	
3973	0	32824	
3974	0	32828	
3975	0	32901	
3976	0	32856	
3977	0	32836	
3978	0	32880	
3979	0	32884	
3980	0	32893	
3981	0	32752	
3982	0	32664	
3983	0	32700	
3984	0	32576	
3985	0	32589	
3986	0	32708	
3987	0	32668	
3988	0	32784	
3989	0	32772	
3990	0	32836	
3991	0	32876	
3992	0	32892	
3993	0	32841	
3994	0	32860	
3995	0	32860	
3996	0	32812	
3997	0	32812	
3998	0	32832	
3999	0	32820	
4000	0	32769	
4001	0	32796	
4002	0	32768	
4003	0	32696	
4004	0	32680	
4005	0	32624	
4006	0	32652	
4007	0	32688	
4008	0	32692	
4009	0	32776	
4010	0	32860	
4011	0	32867	
4012	0	32848	
4013	0	32856	
4014	0	32844	
4015	0	32820	
4016	0	32888	
4017	0	32877	
4018	0	32928	
4019	0	32836	
4020	0	32724	
4021	0	32692	
4022	0	32732	
4023	0	32704	
4024	0	32632	
4025	0	32580	
4026	0	32558	
4027	0	32660	
4028	0	32788	
4029	0	32892	
4030	0	33016	
4031	0	32960	
4032	0	32792	
4033	0	32804	
4034	0	32646	
4035	0	32800	
4036	0	32916	
4037	0	32808	
4038	0	32936	
4039	0	32919	
4040	0	32832	
4041	0	32684	
4042	0	32676	
4043	0	32740	
4044	0	32744	
4045	0	32560	
4046	0	32604	
4047	0	32724	
4048	0	32712	
4049	0	32700	
4050	0	32880	
4051	0	32928	
4052	0	32837	
4053	0	32921	
4054	0	32792	
4055	0	32828	
4056	0	32929	
4057	0	32944	
4058	0	32924	
4059	0	32696	
4060	0	32580	
4061	0	32649	
4062	0	32832	
4063	0	32724	
4064	0	32628	
4065	0	32552	
4066	0	32652	
4067	0	32688	
4068	0	32776	
4069	0	32832	
4070	0	32812	
4071	0	32824	
4072	0	32900	
4073	0	32812	
4074	0	32788	
4075	0	32808	
4076	0	32852	
4077	0	32872	
4078	0	32989	
4079	0	32936	
4080	0	32834	
4081	0	32764	
4082	0	32720	
4083	0	32688	
4084	0	32732	
4085	0	32596	
4086	0	32532	
4087	0	32565	
4088	0	32640	
4089	0	32800	
4090	0	32806	
4091	0	32892	
4092	0	32856	
4093	0	32992	
4094	0	32884	
4095	0	32774	
4096	0	32846	
4097	0	32756	
4098	0	32816	
4099	0	32912	
4100	0	32880	
4101	0	32736	
4102	0	32660	
4103	0	32668	
4104	0	32616	
4105	0	32646	
4106	0	32604	
4107	0	32764	
4108	0	32692	
4109	0	32796	
4110	0	32840	
4111	0	32880	
4112	0	32820	
4113	0	32889	
4114	0	32869	
4115	0	32825	
4116	0	32805	
4117	0	32916	
4118	0	32910	
4119	0	32908	
4120	0	32868	
4121	0	32673	
4122	0	32598	
4123	0	32698	
4124	0	32652	
4125	0	32608	
4126	0	32608	
4127	0	32636	
4128	0	32796	
4129	0	32854	
4130	0	32816	
4131	0	32758	
4132	0	32780	
4133	0	32912	
4134	0	32908	
4135	0	32900	
4136	0	32805	
4137	0	32786	
4138	0	32832	
4139	0	32800	
4140	0	32760	
4141	0	32700	
4142	0	32628	
4143	0	32960	
4144	0	32960	
4145	0	32684	
4146	0	32652	
4147	0	32684	
4148	0	32612	
4149	0	32736	
4150	0	32796	
4151	0	32810	
4152	0	32788	
4153	0	32868	
4154	0	32888	
4155	0	32756	
4156	0	32800	
4157	0	32801	
4158	0	32916	
4159	0	32996	
4160	0	32948	
4161	0	32672	
4162	0	32588	
4163	0	32726	
4164	0	32852	
4165	0	32672	
4166	0	32564	
4167	0	32608	
4168	0	32672	
4169	0	32783	
4170	0	32870	
4171	0	32884	
4172	0	32826	
4173	0	32772	
4174	0	32909	
4175	0	32912	
4176	0	32868	
4177	0	32770	
4178	0	32836	
4179	0	32848	
4180	0	32762	
4181	0	32764	
4182	0	32749	
4183	0	32688	
4184	0	32705	
4185	0	32684	
4186	0	32620	
4187	0	32712	
4188	0	32756	
4189	0	32736	
4190	0	32814	
4191	0	32812	
4192	0	32804	
4193	0	32776	
4194	0	32964	
4195	0	32847	
4196	0	32925	
4197	0	32904	
4198	0	32920	
4199	0	32924	
4200	0	32788	
4201	0	32741	
4202	0	32717	
4203	0	32724	
4204	0	32652	
4205	0	32604	
4206	0	32556	
4207	0	32672	
4208	0	32756	
4209	0	32812	
4210	0	32828	
4211	0	32932	
4212	0	32864	
4213	0	32816	
4214	0	32712	
4215	0	32846	
4216	0	32828	
4217	0	32844	
4218	0	32856	
4219	0	32869	
4220	0	32832	
4221	0	32725	
4222	0	32672	
4223	0	32820	
4224	0	32764	
4225	0	32677	
4226	0	32552	
4227	0	32688	
4228	0	32718	
4229	0	32792	
4230	0	32816	
4231	0	32808	
4232	0	32912	
4233	0	32888	
4234	0	32788	
4235	0	32768	
4236	0	32884	
4237	0	32876	
4238	0	32879	
4239	0	32796	
4240	0	32772	
4241	0	32612	
4242	0	32712	
4243	0	32733	
4244	0	32730	
4245	0	32604	
4246	0	32572	
4247	0	32692	
4248	0	32800	
4249	0	32768	
4250	0	32702	
4251	0	32820	
4252	0	32932	
4253	0	32945	
4254	0	32860	
4255	0	32820	
4256	0	32853	
4257	0	32724	
4258	0	32784	
4259	0	32864	
4260	0	32848	
4261	0	32776	
4262	0	32808	
4263	0	32804	
4264	0	32742	
4265	0	32568	
4266	0	32592	
4267	0	32844	
4268	0	32850	
4269	0	32872	
4270	0	32736	
4271	0	32791	
4272	0	32888	
4273	0	32864	
4274	0	32848	
4275	0	32844	
4276	0	32864	
4277	0	32880	
4278	0	32902	
4279	0	32856	
4280	0	32840	
4281	0	32760	
4282	0	32698	
4283	0	32652	
4284	0	32672	
4285	0	32640	
4286	0	32588	
4287	0	32672	
4288	0	32744	
4289	0	32780	
4290	0	32804	
4291	0	32948	
4292	0	32826	
4293	0	32789	
4294	0	32740	
4295	0	32728	
4296	0	32842	
4297	0	32816	
4298	0	32901	
4299	0	32900	
4300	0	32792	
4301	0	32676	
4302	0	32664	
4303	0	32717	
4304	0	32684	
4305	0	32696	
4306	0	32652	
4307	0	32734	
4308	0	32796	
4309	0	32820	
4310	0	32694	
4311	0	32816	
4312	0	32864	
4313	0	32832	
4314	0	32868	
4315	0	32800	
4316	0	32820	
4317	0	32860	
4318	0	32942	
4319	0	32956	
4320	0	32936	
4321	0	32831	
4322	0	32628	
4323	0	32612	
4324	0	32656	
4325	0	32708	
4326	0	32800	
4327	0	32828	
4328	0	32616	
4329	0	32720	
4330	0	32757	
4331	0	32772	
4332	0	32736	
4333	0	32812	
4334	0	32756	
4335	0	32765	
4336	0	32904	
4337	0	32956	
4338	0	32936	
4339	0	32828	
4340	0	32736	
4341	0	32712	
4342	0	32708	
4343	0	32764	
4344	0	32728	
4345	0	32770	
4346	0	32652	
4347	0	32728	
4348	0	32684	
4349	0	32696	
4350	0	32716	
4351	0	32844	
4352	0	32852	
4353	0	32857	
4354	0	32808	
4355	0	32760	
4356	0	32768	
4357	0	32857	
4358	0	33012	
4359	0	32976	
4360	0	32868	
4361	0	32745	
4362	0	32680	
4363	0	32664	
4364	0	32664	
4365	0	32600	
4366	0	32576	
4367	0	32676	
4368	0	32766	
4369	0	32828	
4370	0	32860	
4371	0	32812	
4372	0	32840	
4373	0	32828	
4374	0	32844	
4375	0	32804	
4376	0	32746	
4377	0	32741	
4378	0	32900	
4379	0	32944	
4380	0	32900	
4381	0	32829	
4382	0	32812	
4383	0	32761	
4384	0	32629	
4385	0	32608	
4386	0	32608	
4387	0	32604	
4388	0	32772	
4389	0	32872	
4390	0	32852	
4391	0	32820	
4392	0	32788	
4393	0	32824	
4394	0	32820	
4395	0	32853	
4396	0	32896	
4397	0	32886	
4398	0	32860	
4399	0	32820	
4400	0	32812	
4401	0	32700	
4402	0	32696	
4403	0	32681	
4404	0	32756	
4405	0	32596	
4406	0	32628	
4407	0	32692	
4408	0	32728	
4409	0	32879	
4410	0	32860	
4411	0	32828	
4412	0	32844	
4413	0	32789	
4414	0	32916	
4415	0	32884	
4416	0	32868	
4417	0	32780	
4418	0	32828	
4419	0	32844	
4420	0	32828	
4421	0	32844	
4422	0	32736	
4423	0	32852	
4424	0	32764	
4425	0	32578	
4426	0	32476	
4427	0	32578	
4428	0	32612	
4429	0	32740	
4430	0	32848	
4431	0	32808	
4432	0	32796	
4433	0	32880	
4434	0	32968	
4435	0	32892	
4436	0	32936	
4437	0	32861	
4438	0	32940	
4439	0	32926	
4440	0	32806	
4441	0	32725	
4442	0	32620	
4443	0	32700	
4444	0	32644	
4445	0	32600	
4446	0	32576	
4447	0	32668	
4448	0	32824	
4449	0	32941	
4450	0	32800	
4451	0	32884	
4452	0	32794	
4453	0	32888	
4454	0	32852	
4455	0	32848	
4456	0	32776	
4457	0	32784	
4458	0	32816	
4459	0	32853	
4460	0	32804	
4461	0	32728	
4462	0	32759	
4463	0	32732	
4464	0	32665	
4465	0	32684	
4466	0	32628	
4467	0	32648	
4468	0	32700	
4469	0	32812	
4470	0	32816	
4471	0	32828	
4472	0	32876	
4473	0	32816	
4474	0	32762	
4475	0	33012	
4476	0	32980	
4477	0	32956	
4478	0	32736	
4479	0	32792	
4480	0	32804	
4481	0	32808	
4482	0	32804	
4483	0	32782	
4484	0	32592	
4485	0	32613	
4486	0	32690	
4487	0	32696	
4488	0	32654	
4489	0	32784	
4490	0	32816	
4491	0	32820	
4492	0	32840	
4493	0	32848	
4494	0	32808	
4495	0	32732	
4496	0	32737	
4497	0	32792	
4498	0	32836	
4499	0	32880	
4500	0	32925	
4501	0	32806	
4502	0	32668	
4503	0	32736	
4504	0	32704	
4505	0	32720	
4506	0	32736	
4507	0	32724	
4508	0	32714	
4509	0	32652	
4510	0	32772	
4511	0	32879	
4512	0	32852	
4513	0	32908	
4514	0	32820	
4515	0	32885	
4516	0	32860	
4517	0	32825	
4518	0	32844	
4519	0	32836	
4520	0	32836	
4521	0	32740	
4522	0	32668	
4523	0	32664	
4524	0	32636	
4525	0	32552	
4526	0	32668	
4527	0	32676	
4528	0	32728	
4529	0	32797	
4530	0	32786	
4531	0	32782	
4532	0	32840	
4533	0	32936	
4534	0	32925	
4535	0	32884	
4536	0	32868	
4537	0	32796	
4538	0	32892	
4539	0	32997	
4540	0	32900	
4541	0	32676	
4542	0	32592	
4543	0	32636	
4544	0	32660	
4545	0	32704	
4546	0	32552	
4547	0	32660	
4548	0	32748	
4549	0	32676	
4550	0	32816	
4551	0	32796	
4552	0	32888	
4553	0	32904	
4554	0	32920	
4555	0	33088	
4556	0	33032	
4557	0	32696	
4558	0	32710	
4559	0	32708	
4560	0	32786	
4561	0	32784	
4562	0	32668	
4563	0	32593	
4564	0	32797	
4565	0	32700	
4566	0	32640	
4567	0	32684	
4568	0	32766	
4569	0	32741	
4570	0	32821	
4571	0	32856	
4572	0	32820	
4573	0	32860	
4574	0	32844	
4575	0	32852	
4576	0	32868	
4577	0	32832	
4578	0	32853	
4579	0	32848	
4580	0	32800	
4581	0	32729	
4582	0	32698	
4583	0	32669	
4584	0	32712	
4585	0	32677	
4586	0	32652	
4587	0	32712	
4588	0	32669	
4589	0	32584	
4590	0	32794	
4591	0	32897	
4592	0	32904	
4593	0	33055	
4594	0	32968	
4595	0	32920	
4596	0	32856	
4597	0	32748	
4598	0	32684	
4599	0	32773	
4600	0	32836	
4601	0	32724	
4602	0	32685	
4603	0	32780	
4604	0	32728	
4605	0	32660	
4606	0	32596	
4607	0	32748	
4608	0	32832	
4609	0	32796	
4610	0	32780	
4611	0	32720	
4612	0	32677	
4613	0	32775	
4614	0	32816	
4615	0	32864	
4616	0	32928	
4617	0	32844	
4618	0	32892	
4619	0	32826	
4620	0	32880	
4621	0	32732	
4622	0	32654	
4623	0	32669	
4624	0	32696	
4625	0	32584	
4626	0	32676	
4627	0	32732	
4628	0	32748	
4629	0	32816	
4630	0	32800	
4631	0	32852	
4632	0	32864	
4633	0	32852	
4634	0	32724	
4635	0	32724	
4636	0	32760	
4637	0	32828	
4638	0	32820	
4639	0	32936	
4640	0	32926	
4641	0	32676	
4642	0	32645	
4643	0	32669	
4644	0	32631	
4645	0	32656	
4646	0	32640	
4647	0	32688	
4648	0	32732	
4649	0	32980	
4650	0	32788	
4651	0	32848	
4652	0	32820	
4653	0	32820	
4654	0	32884	
4655	0	32896	
4656	0	32892	
4657	0	32876	
4658	0	32796	
4659	0	32894	
4660	0	32857	
4661	0	32764	
4662	0	32692	
4663	0	32744	
4664	0	32720	
4665	0	32668	
4666	0	32592	
4667	0	32612	
4668	0	32772	
4669	0	32836	
4670	0	32833	
4671	0	32764	
4672	0	32732	
4673	0	32833	
4674	0	32868	
4675	0	32924	
4676	0	32788	
4677	0	32886	
4678	0	32760	
4679	0	32834	
4680	0	32896	
4681	0	32768	
4682	0	32668	
4683	0	32740	
4684	0	32687	
4685	0	32732	
4686	0	32588	
4687	0	32622	
4688	0	32616	
4689	0	32660	
4690	0	32768	
4691	0	32908	
4692	0	32908	
4693	0	32924	
4694	0	32956	
4695	0	32812	
4696	0	32845	
4697	0	32852	
4698	0	32788	
4699	0	32836	
4700	0	32828	
4701	0	32820	
4702	0	32766	
4703	0	32724	
4704	0	32726	
4705	0	32688	
4706	0	32600	
4707	0	32604	
4708	0	32622	
4709	0	32724	
4710	0	32812	
4711	0	32820	
4712	0	32844	
4713	0	32856	
4714	0	32860	
4715	0	32928	
4716	0	32828	
4717	0	32855	
4718	0	32812	
4719	0	32884	
4720	0	32853	
4721	0	32832	
4722	0	32728	
4723	0	32708	
4724	0	32658	
4725	0	32500	
4726	0	32472	
4727	0	32644	
4728	0	32800	
4729	0	32792	
4730	0	32879	
4731	0	32981	
4732	0	32884	
4733	0	32800	
4734	0	32784	
4735	0	32856	
4736	0	32864	
4737	0	32824	
4738	0	32876	
4739	0	32902	
4740	0	32885	
4741	0	32740	
4742	0	32756	
4743	0	32784	
4744	0	32748	
4745	0	32672	
4746	0	32616	
4747	0	32621	
4748	0	32656	
4749	0	32820	
4750	0	32800	
4751	0	32888	
4752	0	32788	
4753	0	32800	
4754	0	32856	
4755	0	32837	
4756	0	32924	
4757	0	32857	
4758	0	32744	
4759	0	32892	
4760	0	32872	
4761	0	32744	
4762	0	32712	
4763	0	32660	
4764	0	32628	
4765	0	32573	
4766	0	32708	
4767	0	32808	
4768	0	32692	
4769	0	32892	
4770	0	32808	
4771	0	32800	
4772	0	32856	
4773	0	32888	
4774	0	32832	
4775	0	32888	
4776	0	32916	
4777	0	32756	
4778	0	32864	
4779	0	32765	
4780	0	32872	
4781	0	32893	
4782	0	32744	
4783	0	32696	
4784	0	32660	
4785	0	32528	
4786	0	32540	
4787	0	32676	
4788	0	32696	
4789	0	32796	
4790	0	32856	
4791	0	32901	
4792	0	32834	
4793	0	32856	
4794	0	32808	
4795	0	32880	
4796	0	32900	
4797	0	32844	
4798	0	32912	
4799	0	32816	
4800	0	32766	
4801	0	32640	
4802	0	32733	
4803	0	32724	
4804	0	32716	
4805	0	32722	
4806	0	32596	
4807	0	32652	
4808	0	32637	
4809	0	32772	
4810	0	32762	
4811	0	32796	
4812	0	32880	
4813	0	32852	
4814	0	32792	
4815	0	32784	
4816	0	32836	
4817	0	32860	
4818	0	32936	
4819	0	33020	
4820	0	32940	
4821	0	32678	
4822	0	32644	
4823	0	32660	
4824	0	32676	
4825	0	32640	
4826	0	32664	
4827	0	32704	
4828	0	32716	
4829	0	32748	
4830	0	32780	
4831	0	32838	
4832	0	32885	
4833	0	32876	
4834	0	32854	
4835	0	32868	
4836	0	32940	
4837	0	32864	
4838	0	32904	
4839	0	32886	
4840	0	32873	
4841	0	32836	
4842	0	32757	
4843	0	32720	
4844	0	32640	
4845	0	32588	
4846	0	32580	
4847	0	32604	
4848	0	32781	
4849	0	32766	
4850	0	32774	
4851	0	32808	
4852	0	32834	
4853	0	32888	
4854	0	32836	
4855	0	32888	
4856	0	32928	
4857	0	32900	
4858	0	32756	
4859	0	32916	
4860	0	33012	
4861	0	32842	
4862	0	32628	
4863	0	32660	
4864	0	32684	
4865	0	32624	
4866	0	32396	
4867	0	32574	
4868	0	32852	
4869	0	32988	
4870	0	32836	
4871	0	32752	
4872	0	32788	
4873	0	32800	
4874	0	32892	
4875	0	32885	
4876	0	32824	
4877	0	32940	
4878	0	32912	
4879	0	32964	
4880	0	32796	
4881	0	32740	
4882	0	32680	
4883	0	32696	
4884	0	32712	
4885	0	32647	
4886	0	32652	
4887	0	32647	
4888	0	32684	
4889	0	32792	
4890	0	32744	
4891	0	32876	
4892	0	32876	
4893	0	32856	
4894	0	32940	
4895	0	32960	
4896	0	32808	
4897	0	32748	
4898	0	32882	
4899	0	32840	
4900	0	32846	
4901	0	32696	
4902	0	32704	
4903	0	32686	
4904	0	32662	
4905	0	32623	
4906	0	32584	
4907	0	32580	
4908	0	32712	
4909	0	32892	
4910	0	32900	
4911	0	32740	
4912	0	32816	
4913	0	32762	
4914	0	32756	
4915	0	32797	
4916	0	32824	
4917	0	32836	
4918	0	32900	
4919	0	32852	
4920	0	32789	
4921	0	32689	
4922	0	32605	
4923	0	32760	
4924	0	32664	
4925	0	32736	
4926	0	32756	
4927	0	32700	
4928	0	32752	
4929	0	32794	
4930	0	32896	
4931	0	32852	
4932	0	32868	
4933	0	32944	
4934	0	32852	
4935	0	32896	
4936	0	32941	
4937	0	32988	
4938	0	32896	
4939	0	32860	
4940	0	32804	
4941	0	32712	
4942	0	32784	
4943	0	32712	
4944	0	32848	
4945	0	32744	
4946	0	32604	
4947	0	32632	
4948	0	32680	
4949	0	32730	
4950	0	32732	
4951	0	32924	
4952	0	32868	
4953	0	32718	
4954	0	32736	
4955	0	32704	
4956	0	32852	
4957	0	32912	
4958	0	32908	
4959	0	32857	
4960	0	32816	
4961	0	32725	
4962	0	32641	
4963	0	32664	
4964	0	32740	
4965	0	32784	
4966	0	32696	
4967	0	32576	
4968	0	32524	
4969	0	32580	
4970	0	32869	
4971	0	32920	
4972	0	32924	
4973	0	32900	
4974	0	32860	
4975	0	32908	
4976	0	32884	
4977	0	32836	
4978	0	32772	
4979	0	32952	
4980	0	32804	
4981	0	32748	
4982	0	32744	
4983	0	32684	
4984	0	32632	
4985	0	32716	
4986	0	32905	
4987	0	32740	
4988	0	32608	
4989	0	32661	
4990	0	32640	
4991	0	32760	
4992	0	32788	
4993	0	32877	
4994	0	32812	
4995	0	32900	
4996	0	32920	
4997	0	32894	
4998	0	32932	
4999	0	32932	
5000	0	32840	
5001	0	32832	
5002	0	32752	
5003	0	32670	
5004	0	32668	
5005	0	32652	
5006	0	32636	
5007	0	32646	
5008	0	32692	
5009	0	32740	
5010	0	32773	
5011	0	32796	
5012	0	32846	
5013	0	32776	
5014	0	32864	
5015	0	32861	
5016	0	32796	
5017	0	32828	
5018	0	32832	
5019	0	32898	
5020	0	32876	
5021	0	32813	
5022	0	32676	
5023	0	32710	
5024	0	32728	
5025	0	32648	
5026	0	32630	
5027	0	32576	
5028	0	32644	
5029	0	32788	
5030	0	32841	
5031	0	32836	
5032	0	32836	
5033	0	32884	
5034	0	33064	
5035	0	32984	
5036	0	32704	
5037	0	32708	
5038	0	32820	
5039	0	32738	
5040	0	32560	
5041	0	32536	
5042	0	32564	
5043	0	32608	
5044	0	32672	
5045	0	32680	
5046	0	32668	
5047	0	31928	
5048	0	31952	
5049	0	32000	
5050	0	31840	
5051	0	32160	
5052	0	32668	
5053	0	33118	
5054	0	33628	
5055	0	33832	
5056	0	34028	
5057	0	34108	
5058	0	33984	
5059	0	34016	
5060	0	34020	
5061	0	34100	
5062	0	33612	
5063	0	32732	
5064	0	32192	
5065	0	32042	
5066	0	32396	
5067	0	31944	
5068	0	31404	
5069	0	31322	
5070	0	31412	
5071	0	32433	
5072	0	33516	
5073	0	34233	
5074	0	34558	
5075	0	33600	
5076	0	32344	
5077	0	32296	
5078	0	32924	
5079	0	32980	
5080	0	32972	
5081	0	32588	
5082	0	32492	
5083	0	32484	
5084	0	32464	
5085	0	32252	
5086	0	32192	
5087	0	31925	
5088	0	31796	
5089	0	31808	
5090	0	32212	
5091	0	32633	
5092	0	32977	
5093	0	33265	
5094	0	33092	
5095	0	32981	
5096	0	33132	
5097	0	33228	
5098	0	33092	
5099	0	33109	
5100	0	32972	
5101	0	32848	
5102	0	32796	
5103	0	32712	
5104	0	32804	
5105	0	32704	
5106	0	32664	
5107	0	32692	
5108	0	32676	
5109	0	32860	
5110	0	32820	
5111	0	32912	
5112	0	32916	
5113	0	32960	
5114	0	32900	
5115	0	32928	
5116	0	32872	
5117	0	32916	
5118	0	32836	
5119	0	32888	
5120	0	32872	
5121	0	32664	
5122	0	32564	
5123	0	32486	
5124	0	32297	
5125	0	32094	
5126	0	32212	
5127	0	32402	
5128	0	32520	
5129	0	32728	
5130	0	32743	
5131	0	32988	
5132	0	33280	
5133	0	33492	
5134	0	33508	
5135	0	33420	
5136	0	32904	
5137	0	31956	
5138	0	31797	
5139	0	31644	
5140	0	32016	
5141	0	32556	
5142	0	33032	
5143	0	33429	
5144	0	33848	
5145	0	33640	
5146	0	33652	
5147	0	33728	
5148	0	33637	
5149	0	33605	
5150	0	33352	
5151	0	33416	
5152	0	33408	
5153	0	33164	
5154	0	32956	
5155	0	32704	
5156	0	32540	
5157	0	32473	
5158	0	32092	
5159	0	31792	
5160	0	32110	
5161	0	32408	
5162	0	32216	
5163	0	32028	
5164	0	32240	
5165	0	32324	
5166	0	32660	
5167	0	32416	
5168	0	32320	
5169	0	31932	
5170	0	31877	
5171	0	32628	
5172	0	32928	
5173	0	31900	
5174	0	31468	
5175	0	32908	
5176	0	34108	
5177	0	34248	
5178	0	33904	
5179	0	33856	
5180	0	34616	
5181	0	34209	
5182	0	33949	
5183	0	33915	
5184	0	33596	
5185	0	32908	
5186	0	31660	
5187	0	31232	
5188	0	31680	
5189	0	31956	
5190	0	31816	
5191	0	32132	
5192	0	31992	
5193	0	32120	
5194	0	32852	
5195	0	31996	
5196	0	30932	
5197	0	30380	
5198	0	30080	
5199	0	30656	
5200	0	31196	
5201	0	32208	
5202	0	33648	
5203	0	34695	
5204	0	35348	
5205	0	35760	
5206	0	35552	
5207	0	34944	
5208	0	34176	
5209	0	34572	
5210	0	33912	
5211	0	34004	
5212	0	34156	
5213	0	33744	
5214	0	33792	
5215	0	33068	
5216	0	33108	
5217	0	33076	
5218	0	31662	
5219	0	31080	
5220	0	30348	
5221	0	30136	
5222	0	30756	
5223	0	31264	
5224	0	31404	
5225	0	31472	
5226	0	30957	
5227	0	30597	
5228	0	29908	
5229	0	27733	
5230	0	28765	
5231	0	31156	
5232	0	32838	
5233	0	34941	
5234	0	36404	
5235	0	38076	
5236	0	38869	
5237	0	39636	
5238	0	40428	
5239	0	39426	
5240	0	37584	
5241	0	34568	
5242	0	32389	
5243	0	31340	
5244	0	30924	
5245	0	30572	
5246	0	30544	
5247	0	31604	
5248	0	32392	
5249	0	32708	
5250	0	32680	
5251	0	32536	
5252	0	31936	
5253	0	31488	
5254	0	31032	
5255	0	30400	
5256	0	30452	
5257	0	30212	
5258	0	30508	
5259	0	30822	
5260	0	30880	
5261	0	30958	
5262	0	31252	
5263	0	31788	
5264	0	31964	
5265	0	32040	
5266	0	31793	
5267	0	32194	
5268	0	32476	
5269	0	32964	
5270	0	33496	
5271	0	33760	
5272	0	34024	
5273	0	34512	
5274	0	35628	
5275	0	36056	
5276	0	35956	
5277	0	34924	
5278	0	33580	
5279	0	32612	
5280	0	32034	
5281	0	31292	
5282	0	30424	
5283	0	30004	
5284	0	31136	
5285	0	32620	
5286	0	33344	
5287	0	32804	
5288	0	32432	
5289	0	33348	
5290	0	32837	
5291	0	30828	
5292	0	29432	
5293	0	29528	
5294	0	30820	
5295	0	31377	
5296	0	32160	
5297	0	34696	
5298	0	35160	
5299	0	34701	
5300	0	35332	
5301	0	35984	
5302	0	36528	
5303	0	36068	
5304	0	35300	
5305	0	34389	
5306	0	32956	
5307	0	32696	
5308	0	33144	
5309	0	33228	
5310	0	32680	
5311	0	32485	
5312	0	31864	
5313	0	31818	
5314	0	32040	
5315	0	32812	
5316	0	33193	
5317	0	33440	
5318	0	33700	
5319	0	33972	
5320	0	33864	
5321	0	33712	
5322	0	33452	
5323	0	32876	
5324	0	32448	
5325	0	31236	
5326	0	30664	
5327	0	30828	
5328	0	30820	
5329	0	31230	
5330	0	31532	
5331	0	31706	
5332	0	31920	
5333	0	32705	
5334	0	32916	
5335	0	32900	
5336	0	32965	
5337	0	32648	
5338	0	32954	
5339	0	32738	
5340	0	32692	
5341	0	32304	
5342	0	32100	
5343	0	31864	
5344	0	32676	
5345	0	32709	
5346	0	32444	
5347	0	32576	
5348	0	32936	
5349	0	33317	
5350	0	33484	
5351	0	33828	
5352	0	34212	
5353	0	34464	
5354	0	33736	
5355	0	33148	
5356	0	31720	
5357	0	31004	
5358	0	32320	
5359	0	33628	
5360	0	33448	
5361	0	32740	
5362	0	33256	
5363	0	33070	
5364	0	32684	
5365	0	32624	
5366	0	31484	
5367	0	30393	
5368	0	30916	
5369	0	31837	
5370	0	32544	
5371	0	33284	
5372	0	33632	
5373	0	33700	
5374	0	33482	
5375	0	33616	
5376	0	33624	
5377	0	33270	
5378	0	33049	
5379	0	32775	
5380	0	32669	
5381	0	32393	
5382	0	32224	
5383	0	32250	
5384	0	32472	
5385	0	32577	
5386	0	32800	
5387	0	32532	
5388	0	32268	
5389	0	32580	
5390	0	32879	
5391	0	33428	
5392	0	32480	
5393	0	31920	
5394	0	31556	
5395	0	31404	
5396	0	31693	
5397	0	31628	
5398	0	31960	
5399	0	32296	
5400	0	33596	
5401	0	35100	
5402	0	35536	
5403	0	35832	
5404	0	35944	
5405	0	35584	
5406	0	34980	
5407	0	34710	
5408	0	33952	
5409	0	32920	
5410	0	31316	
5411	0	31056	
5412	0	31396	
5413	0	31104	
5414	0	31020	
5415	0	31401	
5416	0	31273	
5417	0	30832	
5418	0	31116	
5419	0	32484	
5420	0	33802	
5421	0	34416	
5422	0	34236	
5423	0	34116	
5424	0	34261	
5425	0	33784	
5426	0	33580	
5427	0	33568	
5428	0	33396	
5429	0	33424	
5430	0	33073	
5431	0	32904	
5432	0	31952	
5433	0	31584	
5434	0	31828	
5435	0	31844	
5436	0	32196	
5437	0	32356	
5438	0	32112	
5439	0	31936	
5440	0	32028	
5441	0	32400	
5442	0	32712	
5443	0	32440	
5444	0	32164	
5445	0	32296	
5446	0	32660	
5447	0	32669	
5448	0	32656	
5449	0	32780	
5450	0	32968	
5451	0	32976	
5452	0	33245	
5453	0	32984	
5454	0	32420	
5455	0	32308	
5456	0	32404	
5457	0	32708	
5458	0	33165	
5459	0	33436	
5460	0	33108	
5461	0	32901	
5462	0	32792	
5463	0	32728	
5464	0	32628	
5465	0	32756	
5466	0	32834	
5467	0	32840	
5468	0	32816	
5469	0	32892	
5470	0	32932	
5471	0	33032	
5472	0	32980	
5473	0	32932	
5474	0	32844	
5475	0	32836	
5476	0	32876	
5477	0	32924	
5478	0	32854	
5479	0	32877	
5480	0	32820	
5481	0	32729	
5482	0	32730	
5483	0	32780	
5484	0	32792	
5485	0	32676	
5486	0	32614	
5487	0	32772	
5488	0	32864	
5489	0	32920	
5490	0	32964	
5491	0	32868	
5492	0	32840	
5493	0	32832	
5494	0	32778	
5495	0	32744	
5496	0	32848	
5497	0	32872	
5498	0	32869	
5499	0	32852	
5500	0	32868	
5501	0	32704	
5502	0	32648	
5503	0	32528	
5504	0	32564	
5505	0	32612	
5506	0	32712	
5507	0	32692	
5508	0	32641	
5509	0	32750	
5510	0	32900	
5511	0	32948	
5512	0	32920	
5513	0	32895	
5514	0	32796	
5515	0	32876	
5516	0	33037	
5517	0	32944	
5518	0	32956	
5519	0	32688	
5520	0	32556	
5521	0	32596	
5522	0	32549	
5523	0	32680	
5524	0	32774	
5525	0	32894	
5526	0	32796	
5527	0	32724	
5528	0	32621	
5529	0	32808	
5530	0	32684	
5531	0	32858	
5532	0	32828	
5533	0	32890	
5534	0	32876	
5535	0	32837	
5536	0	32896	
5537	0	32856	
5538	0	32828	
5539	0	32822	
5540	0	32864	
5541	0	32716	
5542	0	32864	
5543	0	32868	
5544	0	32836	
5545	0	32828	
5546	0	32860	
5547	0	32628	
5548	0	32376	
5549	0	32532	
5550	0	32628	
5551	0	32648	
5552	0	32752	
5553	0	32844	
5554	0	32861	
5555	0	32880	
5556	0	32944	
5557	0	33220	
5558	0	33192	
5559	0	33088	
5560	0	32876	
5561	0	32540	
5562	0	32368	
5563	0	32321	
5564	0	32636	
5565	0	32822	
5566	0	32842	
5567	0	32604	
5568	0	32588	
5569	0	32720	
5570	0	32688	
5571	0	32708	
5572	0	32752	
5573	0	32802	
5574	0	32944	
5575	0	33517	
5576	0	33284	
5577	0	33032	
5578	0	32668	
5579	0	32400	
5580	0	32516	
5581	0	32772	
5582	0	32716	
5583	0	32649	
5584	0	32628	
5585	0	32660	
5586	0	32623	
5587	0	32636	
5588	0	32669	
5589	0	32688	
5590	0	32670	
5591	0	32908	
5592	0	32976	
5593	0	32964	
5594	0	32880	
5595	0	32860	
5596	0	32896	
5597	0	32824	
5598	0	32772	
5599	0	32756	
5600	0	32812	
5601	0	32812	
5602	0	32696	
5603	0	32624	
5604	0	32624	
5605	0	32700	
5606	0	32654	
5607	0	32612	
5608	0	32732	
5609	0	32824	
5610	0	32888	
5611	0	32952	
5612	0	32896	
5613	0	32815	
5614	0	32897	
5615	0	32936	
5616	0	32980	
5617	0	32912	
5618	0	32912	
5619	0	32896	
5620	0	32884	
5621	0	32840	
5622	0	32716	
5623	0	32736	
5624	0	32680	
5625	0	32657	
5626	0	32592	
5627	0	32637	
5628	0	32749	
5629	0	32725	
5630	0	32888	
5631	0	32976	
5632	0	32844	
5633	0	32844	
5634	0	32708	
5635	0	32798	
5636	0	32888	
5637	0	32872	
5638	0	32836	
5639	0	32836	
5640	0	32808	
5641	0	32718	
5642	0	32673	
5643	0	32628	
5644	0	32700	
5645	0	32697	
5646	0	32676	
5647	0	32656	
5648	0	32774	
5649	0	32944	
5650	0	32924	
5651	0	32844	
5652	0	32620	
5653	0	32656	
5654	0	32720	
5655	0	32836	
5656	0	33080	
5657	0	32836	
5658	0	32768	
5659	0	32788	
5660	0	32896	
5661	0	32820	
5662	0	32700	
5663	0	32768	
5664	0	32724	
5665	0	32636	
5666	0	32692	
5667	0	32657	
5668	0	32700	
5669	0	32764	
5670	0	32785	
5671	0	32816	
5672	0	32924	
5673	0	32924	
5674	0	32860	
5675	0	32808	
5676	0	32806	
5677	0	32856	
5678	0	32900	
5679	0	32870	
5680	0	32796	
5681	0	32696	
5682	0	32660	
5683	0	32673	
5684	0	32792	
5685	0	32660	
5686	0	32526	
5687	0	32572	
5688	0	32744	
5689	0	32888	
5690	0	32780	
5691	0	32880	
5692	0	32868	
5693	0	32908	
5694	0	32800	
5695	0	32737	
5696	0	32820	
5697	0	32988	
5698	0	32816	
5699	0	32912	
5700	0	32743	
5701	0	32724	
5702	0	32704	
5703	0	32668	
5704	0	32544	
5705	0	32796	
5706	0	32861	
5707	0	32732	
5708	0	32700	
5709	0	32759	
5710	0	32972	
5711	0	33016	
5712	0	32768	
5713	0	32652	
5714	0	32728	
5715	0	32796	
5716	0	32764	
5717	0	32826	
5718	0	32844	
5719	0	32896	
5720	0	32956	
5721	0	32780	
5722	0	32632	
5723	0	32752	
5724	0	32738	
5725	0	32638	
5726	0	32612	
5727	0	32668	
5728	0	32704	
5729	0	32848	
5730	0	32700	
5731	0	32831	
5732	0	32904	
5733	0	32924	
5734	0	32864	
5735	0	32856	
5736	0	32782	
5737	0	32800	
5738	0	32801	
5739	0	32920	
5740	0	32820	
5741	0	32824	
5742	0	32664	
5743	0	32796	
5744	0	32676	
5745	0	32640	
5746	0	32625	
5747	0	32640	
5748	0	32604	
5749	0	32752	
5750	0	32852	
5751	0	32852	
5752	0	32805	
5753	0	32792	
5754	0	32820	
5755	0	32944	
5756	0	32936	
5757	0	32896	
5758	0	32856	
5759	0	32876	
5760	0	32660	
5761	0	32713	
5762	0	32684	
5763	0	32718	
5764	0	32661	
5765	0	32706	
5766	0	32622	
5767	0	32660	
5768	0	32710	
5769	0	32892	
5770	0	32984	
5771	0	32840	
5772	0	32708	
5773	0	32692	
5774	0	32780	
5775	0	32800	
5776	0	32917	
5777	0	32842	
5778	0	32808	
5779	0	32820	
5780	0	32980	
5781	0	32916	
5782	0	32826	
5783	0	32768	
5784	0	32661	
5785	0	32542	
5786	0	32532	
5787	0	32564	
5788	0	32645	
5789	0	32868	
5790	0	32799	
5791	0	32836	
5792	0	32892	
5793	0	32868	
5794	0	32860	
5795	0	32864	
5796	0	32860	
5797	0	32878	
5798	0	32828	
5799	0	32808	
5800	0	32868	
5801	0	32773	
5802	0	32695	
5803	0	32664	
5804	0	32764	
5805	0	32693	
5806	0	32564	
5807	0	32608	
5808	0	32772	
5809	0	32868	
5810	0	32904	
5811	0	32802	
5812	0	32852	
5813	0	32752	
5814	0	32804	
5815	0	32744	
5816	0	32720	
5817	0	32812	
5818	0	32868	
5819	0	32876	
5820	0	32932	
5821	0	32920	
5822	0	32828	
5823	0	32802	
5824	0	32600	
5825	0	32580	
5826	0	32585	
5827	0	32636	
5828	0	32794	
5829	0	32820	
5830	0	32836	
5831	0	32784	
5832	0	32856	
5833	0	32832	
5834	0	32876	
5835	0	32845	
5836	0	32857	
5837	0	32836	
5838	0	32960	
5839	0	32921	
5840	0	32776	
5841	0	32672	
5842	0	32700	
5843	0	32744	
5844	0	32792	
5845	0	32640	
5846	0	32604	
5847	0	32686	
5848	0	32812	
5849	0	32960	
5850	0	32852	
5851	0	32648	
5852	0	32550	
5853	0	32680	
5854	0	32884	
5855	0	32996	
5856	0	32848	
5857	0	32796	
5858	0	32804	
5859	0	32884	
5860	0	32900	
5861	0	32828	
5862	0	32704	
5863	0	32568	
5864	0	32692	
5865	0	32644	
5866	0	32676	
5867	0	32648	
5868	0	32740	
5869	0	32837	
5870	0	32849	
5871	0	32924	
5872	0	32932	
5873	0	32904	
5874	0	32854	
5875	0	32860	
5876	0	32868	
5877	0	32840	
5878	0	32853	
5879	0	32864	
5880	0	32812	
5881	0	32652	
5882	0	32800	
5883	0	32728	
5884	0	32664	
5885	0	32640	
5886	0	32672	
5887	0	32608	
5888	0	32648	
5889	0	32712	
5890	0	32793	
5891	0	32801	
5892	0	32824	
5893	0	32824	
5894	0	32920	
5895	0	32958	
5896	0	32900	
5897	0	32895	
5898	0	32805	
5899	0	32896	
5900	0	32896	
5901	0	32792	
5902	0	32733	
5903	0	32644	
5904	0	32728	
5905	0	32672	
5906	0	32592	
5907	0	32660	
5908	0	32708	
5909	0	32809	
5910	0	32786	
5911	0	32792	
5912	0	32768	
5913	0	32848	
5914	0	32829	
5915	0	32832	
5916	0	32924	
5917	0	32832	
5918	0	32852	
5919	0	32848	
5920	0	32900	
5921	0	32794	
5922	0	32744	
5923	0	32660	
5924	0	32668	
5925	0	32678	
5926	0	32692	
5927	0	32664	
5928	0	32676	
5929	0	32740	
5930	0	32848	
5931	0	32816	
5932	0	32856	
5933	0	32840	
5934	0	32928	
5935	0	32812	
5936	0	32900	
5937	0	32868	
5938	0	32885	
5939	0	32844	
5940	0	32840	
5941	0	32748	
5942	0	32672	
5943	0	32676	
5944	0	32753	
5945	0	32820	
5946	0	32686	
5947	0	32528	
5948	0	32636	
5949	0	32728	
5950	0	32656	
5951	0	32774	
5952	0	32952	
5953	0	33024	
5954	0	32868	
5955	0	32744	
5956	0	32698	
5957	0	32872	
5958	0	32825	
5959	0	32904	
5960	0	32895	
5961	0	32750	
5962	0	32676	
5963	0	32684	
5964	0	32741	
5965	0	32736	
5966	0	32676	
5967	0	32628	
5968	0	32632	
5969	0	32812	
5970	0	32864	
5971	0	32844	
5972	0	32824	
5973	0	32860	
5974	0	32856	
5975	0	32768	
5976	0	32812	
5977	0	32788	
5978	0	32868	
5979	0	32800	
5980	0	32812	
5981	0	32856	
5982	0	32840	
5983	0	32751	
5984	0	32632	
5985	0	32548	
5986	0	32581	
5987	0	32663	
5988	0	32744	
5989	0	32844	
5990	0	32876	
5991	0	32860	
5992	0	32892	
5993	0	32812	
5994	0	32824	
5995	0	32724	
5996	0	32792	
5997	0	32842	
5998	0	32956	
5999	0	32980	
6000	0	32912	
6001	0	32728	
6002	0	32676	
6003	0	32652	
6004	0	32696	
6005	0	32718	
6006	0	32608	
6007	0	32532	
6008	0	32668	
6009	0	32812	
6010	0	32849	
6011	0	32832	
6012	0	32905	
6013	0	32944	
6014	0	32836	
6015	0	32736	
6016	0	32833	
6017	0	32856	
6018	0	32868	
6019	0	32892	
6020	0	32828	
6021	0	32884	
6022	0	32653	
6023	0	32678	
6024	0	32760	
6025	0	32724	
6026	0	32728	
6027	0	32536	
6028	0	32476	
6029	0	32572	
6030	0	32788	
6031	0	33076	
6032	0	33040	
6033	0	32764	
6034	0	32804	
6035	0	32788	
6036	0	32916	
6037	0	32837	
6038	0	32856	
6039	0	32868	
6040	0	32840	
6041	0	32776	
6042	0	32713	
6043	0	32844	
6044	0	32808	
6045	0	32748	
6046	0	32568	
6047	0	32571	
6048	0	32672	
6049	0	32804	
6050	0	32844	
6051	0	32708	
6052	0	32796	
6053	0	32804	
6054	0	32788	
6055	0	32804	
6056	0	32821	
6057	0	32885	
6058	0	32832	
6059	0	32888	
6060	0	32884	
6061	0	32791	
6062	0	32745	
6063	0	32785	
6064	0	32652	
6065	0	32572	
6066	0	32604	
6067	0	32648	
6068	0	32740	
6069	0	32760	
6070	0	32724	
6071	0	32820	
6072	0	32904	
6073	0	32836	
6074	0	32808	
6075	0	32854	
6076	0	32900	
6077	0	32868	
6078	0	32927	
6079	0	32852	
6080	0	32768	
6081	0	32734	
6082	0	32772	
6083	0	32760	
6084	0	32685	
6085	0	32708	
6086	0	32644	
6087	0	32576	
6088	0	32612	
6089	0	32676	
6090	0	32788	
6091	0	32844	
6092	0	32901	
6093	0	32852	
6094	0	32858	
6095	0	32896	
6096	0	32804	
6097	0	32824	
6098	0	32853	
6099	0	32852	
6100	0	32916	
6101	0	32780	
6102	0	32740	
6103	0	32760	
6104	0	32720	
6105	0	32700	
6106	0	32686	
6107	0	32628	
6108	0	32692	
6109	0	32756	
6110	0	32812	
6111	0	32796	
6112	0	32844	
6113	0	32820	
6114	0	32844	
6115	0	32879	
6116	0	32804	
6117	0	32856	
6118	0	32888	
6119	0	32953	
6120	0	32884	
6121	0	32836	
6122	0	32677	
6123	0	32684	
6124	0	32729	
6125	0	32720	
6126	0	32612	
6127	0	32608	
6128	0	32657	
6129	0	32684	
6130	0	32740	
6131	0	32860	
6132	0	32852	
6133	0	32852	
6134	0	32958	
6135	0	32952	
6136	0	32836	
6137	0	32756	
6138	0	32889	
6139	0	32929	
6140	0	32960	
6141	0	32744	
6142	0	32696	
6143	0	32668	
6144	0	32668	
6145	0	32736	
6146	0	32660	
6147	0	32564	
6148	0	32628	
6149	0	32744	
6150	0	32804	
6151	0	32858	
6152	0	32837	
6153	0	32840	
6154	0	32868	
6155	0	32840	
6156	0	32852	
6157	0	32788	
6158	0	32856	
6159	0	32868	
6160	0	32908	
6161	0	32775	
6162	0	32776	
6163	0	32680	
6164	0	32716	
6165	0	32668	
6166	0	32568	
6167	0	32600	
6168	0	32700	
6169	0	32713	
6170	0	32878	
6171	0	32781	
6172	0	32820	
6173	0	32760	
6174	0	32880	
6175	0	32900	
6176	0	32860	
6177	0	32852	
6178	0	32756	
6179	0	32820	
6180	0	32900	
6181	0	32854	
6182	0	32764	
6183	0	32660	
6184	0	32732	
6185	0	32676	
6186	0	32676	
6187	0	32580	
6188	0	32629	
6189	0	32685	
6190	0	32808	
6191	0	32905	
6192	0	32980	
6193	0	32912	
6194	0	32836	
6195	0	32775	
6196	0	32852	
6197	0	32844	
6198	0	32864	
6199	0	32856	
6200	0	32848	
6201	0	32744	
6202	0	32709	
6203	0	32732	
6204	0	32708	
6205	0	32736	
6206	0	32649	
6207	0	32636	
6208	0	32662	
6209	0	32744	
6210	0	32786	
6211	0	32844	
6212	0	32888	
6213	0	32872	
6214	0	32864	
6215	0	32920	
6216	0	32756	
6217	0	32860	
6218	0	32752	
6219	0	32784	
6220	0	32917	
6221	0	32892	
6222	0	32676	
6223	0	32684	
6224	0	32708	
6225	0	32612	
6226	0	32572	
6227	0	32556	
6228	0	32816	
6229	0	32812	
6230	0	32848	
6231	0	32792	
6232	0	32797	
6233	0	32880	
6234	0	32900	
6235	0	32872	
6236	0	32844	
6237	0	32988	
6238	0	33024	
6239	0	32932	
6240	0	32740	
6241	0	32526	
6242	0	32532	
6243	0	32613	
6244	0	32677	
6245	0	32712	
6246	0	32652	
6247	0	32608	
6248	0	32496	
6249	0	32712	
6250	0	32764	
6251	0	32876	
6252	0	32924	
6253	0	32871	
6254	0	32788	
6255	0	32808	
6256	0	32820	
6257	0	32756	
6258	0	32852	
6259	0	32868	
6260	0	32928	
6261	0	33012	
6262	0	32956	
6263	0	32788	
6264	0	32720	
6265	0	32720	
6266	0	32688	
6267	0	32632	
6268	0	32688	
6269	0	32800	
6270	0	32796	
6271	0	32885	
6272	0	32953	
6273	0	32953	
6274	0	32836	
6275	0	32748	
6276	0	32744	
6277	0	32792	
6278	0	32784	
6279	0	32856	
6280	0	32820	
6281	0	32796	
6282	0	32764	
6283	0	32642	
6284	0	32700	
6285	0	32700	
6286	0	32608	
6287	0	32661	
6288	0	32788	
6289	0	32814	
6290	0	32836	
6291	0	32808	
6292	0	32636	
6293	0	32700	
6294	0	32765	
6295	0	32856	
6296	0	32876	
6297	0	32816	
6298	0	32852	
6299	0	32864	
6300	0	32860	
6301	0	32716	
6302	0	32676	
6303	0	32692	
6304	0	32692	
6305	0	32680	
6306	0	32748	
6307	0	32687	
6308	0	32644	
6309	0	32856	
6310	0	32892	
6311	0	32820	
6312	0	32710	
6313	0	32704	
6314	0	32808	
6315	0	32860	
6316	0	32860	
6317	0	32808	
6318	0	32856	
6319	0	32832	
6320	0	32852	
6321	0	32844	
6322	0	32780	
6323	0	32704	
6324	0	32684	
6325	0	32693	
6326	0	32684	
6327	0	32620	
6328	0	32668	
6329	0	32716	
6330	0	32826	
6331	0	32884	
6332	0	32848	
6333	0	32829	
6334	0	32844	
6335	0	32857	
6336	0	32860	
6337	0	32902	
6338	0	32816	
6339	0	32868	
6340	0	32920	
6341	0	32816	
6342	0	32736	
6343	0	32728	
6344	0	32740	
6345	0	32720	
6346	0	32668	
6347	0	32628	
6348	0	32668	
6349	0	32760	
6350	0	32756	
6351	0	32816	
6352	0	32972	
6353	0	32868	
6354	0	32766	
6355	0	32764	
6356	0	32756	
6357	0	33008	
6358	0	32932	
6359	0	32812	
6360	0	32774	
6361	0	32804	
6362	0	32716	
6363	0	32681	
6364	0	32608	
6365	0	32676	
6366	0	32684	
6367	0	32660	
6368	0	32696	
6369	0	32764	
6370	0	32868	
6371	0	32848	
6372	0	32893	
6373	0	32876	
6374	0	32832	
6375	0	32812	
6376	0	32880	
6377	0	32768	
6378	0	32768	
6379	0	32717	
6380	0	32810	
6381	0	32794	
6382	0	32685	
6383	0	32704	
6384	0	32734	
6385	0	32800	
6386	0	32732	
6387	0	32684	
6388	0	32656	
6389	0	32700	
6390	0	32775	
6391	0	32814	
6392	0	32872	
6393	0	32820	
6394	0	32860	
6395	0	32892	
6396	0	32772	
6397	0	32916	
6398	0	32828	
6399	0	32876	
6400	0	32844	
6401	0	32724	
6402	0	32672	
6403	0	32714	
6404	0	32712	
6405	0	32740	
6406	0	32636	
6407	0	32552	
6408	0	32684	
6409	0	32836	
6410	0	32846	
6411	0	32840	
6412	0	32864	
6413	0	32824	
6414	0	32724	
6415	0	32852	
6416	0	32904	
6417	0	32870	
6418	0	32876	
6419	0	32894	
6420	0	32914	
6421	0	32768	
6422	0	32752	
6423	0	32668	
6424	0	32508	
6425	0	32597	
6426	0	32677	
6427	0	32698	
6428	0	32576	
6429	0	32568	
6430	0	32660	
6431	0	32889	
6432	0	32924	
6433	0	32932	
6434	0	32872	
6435	0	32868	
6436	0	32856	
6437	0	32892	
6438	0	32896	
6439	0	32825	
6440	0	32903	
6441	0	32736	
6442	0	32752	
6443	0	32784	
6444	0	32750	
6445	0	32647	
6446	0	32613	
6447	0	32637	
6448	0	32740	
6449	0	32796	
6450	0	32848	
6451	0	32836	
6452	0	32836	
6453	0	32847	
6454	0	32836	
6455	0	32724	
6456	0	32772	
6457	0	32941	
6458	0	32856	
6459	0	32836	
6460	0	32846	
6461	0	32772	
6462	0	32768	
6463	0	32742	
6464	0	32775	
6465	0	32668	
6466	0	32656	
6467	0	32684	
6468	0	32639	
6469	0	32726	
6470	0	32688	
6471	0	32792	
6472	0	32892	
6473	0	32816	
6474	0	32864	
6475	0	32824	
6476	0	32908	
6477	0	32876	
6478	0	32864	
6479	0	32849	
6480	0	32805	
6481	0	32864	
6482	0	32716	
6483	0	32688	
6484	0	32652	
6485	0	32622	
6486	0	32664	
6487	0	32688	
6488	0	32716	
6489	0	32700	
6490	0	32774	
6491	0	32936	
6492	0	32824	
6493	0	32824	
6494	0	32828	
6495	0	32864	
6496	0	32832	
6497	0	32824	
6498	0	32834	
6499	0	32892	
6500	0	32820	
6501	0	32749	
6502	0	32792	
6503	0	32740	
6504	0	32692	
6505	0	32684	
6506	0	32612	
6507	0	32576	
6508	0	32736	
6509	0	32798	
6510	0	32805	
6511	0	32832	
6512	0	32912	
6513	0	32804	
6514	0	32724	
6515	0	32826	
6516	0	32868	
6517	0	32844	
6518	0	32932	
6519	0	32984	
6520	0	32928	
6521	0	32792	
6522	0	32652	
6523	0	32508	
6524	0	32606	
6525	0	32628	
6526	0	32668	
6527	0	32724	
6528	0	32764	
6529	0	32844	
6530	0	32868	
6531	0	32845	
6532	0	32718	
6533	0	32764	
6534	0	32800	
6535	0	32841	
6536	0	32892	
6537	0	32902	
6538	0	32912	
6539	0	32916	
6540	0	32813	
6541	0	32724	
6542	0	32604	
6543	0	32720	
6544	0	32732	
6545	0	32792	
6546	0	32708	
6547	0	32704	
6548	0	32704	
6549	0	32752	
6550	0	32712	
6551	0	32752	
6552	0	32812	
6553	0	32872	
6554	0	32829	
6555	0	32796	
6556	0	32832	
6557	0	32832	
6558	0	32832	
6559	0	32812	
6560	0	32860	
6561	0	32744	
6562	0	32704	
6563	0	32741	
6564	0	32688	
6565	0	32708	
6566	0	32690	
6567	0	32557	
6568	0	32636	
6569	0	32716	
6570	0	32872	
6571	0	32980	
6572	0	32856	
6573	0	32856	
6574	0	32740	
6575	0	32848	
6576	0	32816	
6577	0	32800	
6578	0	32760	
6579	0	32832	
6580	0	32932	
6581	0	32848	
6582	0	32776	
6583	0	32792	
6584	0	32740	
6585	0	32660	
6586	0	32544	
6587	0	32647	
6588	0	32688	
6589	0	32720	
6590	0	32796	
6591	0	32838	
6592	0	32852	
6593	0	32862	
6594	0	32948	
6595	0	32756	
6596	0	32836	
6597	0	32796	
6598	0	32904	
6599	0	32892	
6600	0	32896	
6601	0	32772	
6602	0	32812	
6603	0	32680	
6604	0	32633	
6605	0	32713	
6606	0	32650	
6607	0	32472	
6608	0	32597	
6609	0	32808	
6610	0	32910	
6611	0	32996	
6612	0	32988	
6613	0	32820	
6614	0	32724	
6615	0	32696	
6616	0	32760	
6617	0	32836	
6618	0	32858	
6619	0	32932	
6620	0	32864	
6621	0	32766	
6622	0	32776	
6623	0	32812	
6624	0	32748	
6625	0	32774	
6626	0	32684	
6627	0	32492	
6628	0	32608	
6629	0	32732	
6630	0	32800	
6631	0	32812	
6632	0	32769	
6633	0	32901	
6634	0	32832	
6635	0	32828	
6636	0	32812	
6637	0	32824	
6638	0	32856	
6639	0	32860	
6640	0	32864	
6641	0	32816	
6642	0	32712	
6643	0	32685	
6644	0	32748	
6645	0	32720	
6646	0	32692	
6647	0	32720	
6648	0	32688	
6649	0	32652	
6650	0	32608	
6651	0	32662	
6652	0	32868	
6653	0	32974	
6654	0	32932	
6655	0	32844	
6656	0	32836	
6657	0	32880	
6658	0	32832	
6659	0	32862	
6660	0	32852	
6661	0	32813	
6662	0	32632	
6663	0	32580	
6664	0	32645	
6665	0	32652	
6666	0	32660	
6667	0	32596	
6668	0	32740	
6669	0	32772	
6670	0	32808	
6671	0	32780	
6672	0	32737	
6673	0	32836	
6674	0	32796	
6675	0	32836	
6676	0	32904	
6677	0	32888	
6678	0	32920	
6679	0	32848	
6680	0	32852	
6681	0	32864	
6682	0	32776	
6683	0	32660	
6684	0	32692	
6685	0	32720	
6686	0	32679	
6687	0	32582	
6688	0	32764	
6689	0	32812	
6690	0	32812	
6691	0	32728	
6692	0	32812	
6693	0	32852	
6694	0	32860	
6695	0	32800	
6696	0	32796	
6697	0	32861	
6698	0	32824	
6699	0	32876	
6700	0	32940	
6701	0	32902	
6702	0	32734	
6703	0	32665	
6704	0	32772	
6705	0	32720	
6706	0	32684	
6707	0	32568	
6708	0	32604	
6709	0	32694	
6710	0	32720	
6711	0	32769	
6712	0	32812	
6713	0	32824	
6714	0	32844	
6715	0	32741	
6716	0	32840	
6717	0	32976	
6718	0	32856	
6719	0	32856	
6720	0	32968	
6721	0	32852	
6722	0	32721	
6723	0	32564	
6724	0	32670	
6725	0	32724	
6726	0	32664	
6727	0	32644	
6728	0	32684	
6729	0	32824	
6730	0	32908	
6731	0	32852	
6732	0	32780	
6733	0	32768	
6734	0	32929	
6735	0	32774	
6736	0	32796	
6737	0	32856	
6738	0	32848	
6739	0	32824	
6740	0	32801	
6741	0	32840	
6742	0	32768	
6743	0	32760	
6744	0	32752	
6745	0	32726	
6746	0	32684	
6747	0	32740	
6748	0	32724	
6749	0	32680	
6750	0	32628	
6751	0	32668	
6752	0	32780	
6753	0	32836	
6754	0	32860	
6755	0	32868	
6756	0	32860	
6757	0	32852	
6758	0	32844	
6759	0	32748	
6760	0	32924	
6761	0	32928	
6762	0	32846	
6763	0	32702	
6764	0	32644	
6765	0	32620	
6766	0	32662	
6767	0	32672	
6768	0	32640	
6769	0	32688	
6770	0	32708	
6771	0	32768	
6772	0	32820	
6773	0	32804	
6774	0	32956	
6775	0	32768	
6776	0	32868	
6777	0	32872	
6778	0	32904	
6779	0	32972	
6780	0	32932	
6781	0	32856	
6782	0	32760	
6783	0	32740	
6784	0	32744	
6785	0	32676	
6786	0	32604	
6787	0	32652	
6788	0	32637	
6789	0	32668	
6790	0	32724	
6791	0	32724	
6792	0	32940	
6793	0	32948	
6794	0	32892	
6795	0	32808	
6796	0	32760	
6797	0	32838	
6798	0	32848	
6799	0	32812	
6800	0	32864	
6801	0	32760	
6802	0	32700	
6803	0	32676	
6804	0	32718	
6805	0	32724	
6806	0	32640	
6807	0	32612	
6808	0	32628	
6809	0	32780	
6810	0	32816	
6811	0	32860	
6812	0	32940	
6813	0	32881	
6814	0	32878	
6815	0	32828	
6816	0	32756	
6817	0	32772	
6818	0	32868	
6819	0	32900	
6820	0	32948	
6821	0	32912	
6822	0	32724	
6823	0	32745	
6824	0	32668	
6825	0	32672	
6826	0	32544	
6827	0	32526	
6828	0	32591	
6829	0	32725	
6830	0	32862	
6831	0	32834	
6832	0	32812	
6833	0	32873	
6834	0	32884	
6835	0	32852	
6836	0	32812	
6837	0	32908	
6838	0	32881	
6839	0	32905	
6840	0	32804	
6841	0	32777	
6842	0	32785	
6843	0	32804	
6844	0	32708	
6845	0	32688	
6846	0	32708	
6847	0	32630	
6848	0	32594	
6849	0	32697	
6850	0	32744	
6851	0	32852	
6852	0	32804	
6853	0	32812	
6854	0	32750	
6855	0	32780	
6856	0	32768	
6857	0	32860	
6858	0	32830	
6859	0	32884	
6860	0	32984	
6861	0	33000	
6862	0	32825	
6863	0	32628	
6864	0	32472	
6865	0	32593	
6866	0	32596	
6867	0	32672	
6868	0	32748	
6869	0	32672	
6870	0	32680	
6871	0	32816	
6872	0	32832	
6873	0	32928	
6874	0	32976	
6875	0	32888	
6876	0	32916	
6877	0	32873	
6878	0	32896	
6879	0	32860	
6880	0	32924	
6881	0	32880	
6882	0	32702	
6883	0	32684	
6884	0	32712	
6885	0	32724	
6886	0	32728	
6887	0	32592	
6888	0	32597	
6889	0	32656	
6890	0	32688	
6891	0	32752	
6892	0	32852	
6893	0	32892	
6894	0	32878	
6895	0	32852	
6896	0	32792	
6897	0	32808	
6898	0	32799	
6899	0	32820	
6900	0	32880	
6901	0	32820	
6902	0	32684	
6903	0	32636	
6904	0	32804	
6905	0	32840	
6906	0	32712	
6907	0	32672	
6908	0	32741	
6909	0	32684	
6910	0	32732	
6911	0	32748	
6912	0	32840	
6913	0	32836	
6914	0	32855	
6915	0	32772	
6916	0	32922	
6917	0	32845	
6918	0	32785	
6919	0	32855	
6920	0	32812	
6921	0	32822	
6922	0	32812	
6923	0	32708	
6924	0	32688	
6925	0	32680	
6926	0	32676	
6927	0	32696	
6928	0	32716	
6929	0	32696	
6930	0	32760	
6931	0	32834	
6932	0	32856	
6933	0	32844	
6934	0	32844	
6935	0	32860	
6936	0	32894	
6937	0	32904	
6938	0	32852	
6939	0	32840	
6940	0	32692	
6941	0	32780	
6942	0	32684	
6943	0	32768	
6944	0	32720	
6945	0	32676	
6946	0	32640	
6947	0	32660	
6948	0	32708	
6949	0	32752	
6950	0	32804	
6951	0	32697	
6952	0	32804	
6953	0	32940	
6954	0	32984	
6955	0	32828	
6956	0	32804	
6957	0	32796	
6958	0	32800	
6959	0	32868	
6960	0	32952	
6961	0	32788	
6962	0	32784	
6963	0	32764	
6964	0	32732	
6965	0	32728	
6966	0	32532	
6967	0	32529	
6968	0	32576	
6969	0	32704	
6970	0	32700	
6971	0	32788	
6972	0	32869	
6973	0	32846	
6974	0	32756	
6975	0	32886	
6976	0	32960	
6977	0	32984	
6978	0	32933	
6979	0	32796	
6980	0	32736	
6981	0	32838	
6982	0	32772	
6983	0	32748	
6984	0	32736	
6985	0	32740	
6986	0	32684	
6987	0	32644	
6988	0	32551	
6989	0	32668	
6990	0	32812	
6991	0	32924	
6992	0	32868	
6993	0	32892	
6994	0	32856	
6995	0	32836	
6996	0	32828	
6997	0	32804	
6998	0	32888	
6999	0	32832	
7000	0	32812	
7001	0	32844	
7002	0	32648	
7003	0	32749	
7004	0	32720	
7005	0	32660	
7006	0	32647	
7007	0	32541	
7008	0	32592	
7009	0	32708	
7010	0	32808	
7011	0	32836	
7012	0	32920	
7013	0	32966	
7014	0	32924	
7015	0	32853	
7016	0	32796	
7017	0	32720	
7018	0	32910	
7019	0	32976	
7020	0	32960	
7021	0	32865	
7022	0	32700	
7023	0	32616	
7024	0	32668	
7025	0	32700	
7026	0	32616	
7027	0	32605	
7028	0	32561	
7029	0	32724	
7030	0	32924	
7031	0	32912	
7032	0	32876	
7033	0	32660	
7034	0	32768	
7035	0	32804	
7036	0	32808	
7037	0	32936	
7038	0	32872	
7039	0	32865	
7040	0	32924	
7041	0	32940	
7042	0	32725	
7043	0	32644	
7044	0	32686	
7045	0	32708	
7046	0	32660	
7047	0	32673	
7048	0	32682	
7049	0	32736	
7050	0	32808	
7051	0	32760	
7052	0	32800	
7053	0	32844	
7054	0	32809	
7055	0	32756	
7056	0	32824	
7057	0	32884	
7058	0	32776	
7059	0	32772	
7060	0	32852	
7061	0	32788	
7062	0	32830	
7063	0	32876	
7064	0	32804	
7065	0	32744	
7066	0	32680	
7067	0	32613	
7068	0	32633	
7069	0	32714	
7070	0	32828	
7071	0	32756	
7072	0	32834	
7073	0	32866	
7074	0	32804	
7075	0	32900	
7076	0	32868	
7077	0	32908	
7078	0	32900	
7079	0	32842	
7080	0	32828	
7081	0	32708	
7082	0	32712	
7083	0	32734	
7084	0	32686	
7085	0	32720	
7086	0	32684	
7087	0	32668	
7088	0	32744	
7089	0	32736	
7090	0	32860	
7091	0	32700	
7092	0	32900	
7093	0	32892	
7094	0	32772	
7095	0	32712	
7096	0	32732	
7097	0	32856	
7098	0	32884	
7099	0	32998	
7100	0	32897	
7101	0	32820	
7102	0	32748	
7103	0	32692	
7104	0	32724	
7105	0	32744	
7106	0	32620	
7107	0	32480	
7108	0	32597	
7109	0	32720	
7110	0	32714	
7111	0	32814	
7112	0	32840	
7113	0	32928	
7114	0	32904	
7115	0	32852	
7116	0	32877	
7117	0	32872	
7118	0	32844	
7119	0	32856	
7120	0	32852	
7121	0	32844	
7122	0	32789	
7123	0	32756	
7124	0	32632	
7125	0	32604	
7126	0	32540	
7127	0	32566	
7128	0	32652	
7129	0	32826	
7130	0	32793	
7131	0	32719	
7132	0	32856	
7133	0	32880	
7134	0	32868	
7135	0	32920	
7136	0	32944	
7137	0	32920	
7138	0	32836	
7139	0	32761	
7140	0	32808	
7141	0	32804	
7142	0	32724	
7143	0	32668	
7144	0	32752	
7145	0	32700	
7146	0	32676	
7147	0	32652	
7148	0	32592	
7149	0	32696	
7150	0	32800	
7151	0	32853	
7152	0	32860	
7153	0	32846	
7154	0	32764	
7155	0	32828	
7156	0	32820	
7157	0	32885	
7158	0	32860	
7159	0	32884	
7160	0	32896	
7161	0	32793	
7162	0	32728	
7163	0	32720	
7164	0	32668	
7165	0	32704	
7166	0	32626	
7167	0	32592	
7168	0	32687	
7169	0	32740	
7170	0	32808	
7171	0	32848	
7172	0	32868	
7173	0	32862	
7174	0	32852	
7175	0	32848	
7176	0	32856	
7177	0	32792	
7178	0	32804	
7179	0	32884	
7180	0	32902	
7181	0	32808	
7182	0	32768	
7183	0	32732	
7184	0	32705	
7185	0	32719	
7186	0	32580	
7187	0	32588	
7188	0	32685	
7189	0	32800	
7190	0	32832	
7191	0	32788	
7192	0	32772	
7193	0	32769	
7194	0	32788	
7195	0	32877	
7196	0	32860	
7197	0	32920	
7198	0	32940	
7199	0	32832	
7200	0	32820	
7201	0	32828	
7202	0	32756	
7203	0	32784	
7204	0	32928	
7205	0	32744	
7206	0	32553	
7207	0	32528	
7208	0	32664	
7209	0	32692	
7210	0	32741	
7211	0	32616	
7212	0	32748	
7213	0	32828	
7214	0	32952	
7215	0	32876	
7216	0	33047	
7217	0	32909	
7218	0	32768	
7219	0	32724	
7220	0	32756	
7221	0	32772	
7222	0	32768	
7223	0	32632	
7224	0	32668	
7225	0	32684	
7226	0	32744	
7227	0	32653	
7228	0	32612	
7229	0	32680	
7230	0	32736	
7231	0	32828	
7232	0	32844	
7233	0	32944	
7234	0	32900	
7235	0	32834	
7236	0	32802	
7237	0	32901	
7238	0	32889	
7239	0	32852	
7240	0	32812	
7241	0	32800	
7242	0	32744	
7243	0	32668	
7244	0	32692	
7245	0	32676	
7246	0	32640	
7247	0	32640	
7248	0	32700	
7249	0	32684	
7250	0	32860	
7251	0	32904	
7252	0	32868	
7253	0	32824	
7254	0	32760	
7255	0	32740	
7256	0	32862	
7257	0	32904	
7258	0	32936	
7259	0	32916	
7260	0	32880	
7261	0	32864	
7262	0	32656	
7263	0	32604	
7264	0	32676	
7265	0	32724	
7266	0	32570	
7267	0	32660	
7268	0	32644	
7269	0	32776	
7270	0	32772	
7271	0	32764	
7272	0	32836	
7273	0	32804	
7274	0	32832	
7275	0	32884	
7276	0	32824	
7277	0	32872	
7278	0	32796	
7279	0	32853	
7280	0	32972	
7281	0	33104	
7282	0	32872	
7283	0	32684	
7284	0	32568	
7285	0	32640	
7286	0	32613	
7287	0	32677	
7288	0	32758	
7289	0	32752	
7290	0	32732	
7291	0	32724	
7292	0	32788	
7293	0	32816	
7294	0	32872	
7295	0	32860	
7296	0	32788	
7297	0	32924	
7298	0	32792	
7299	0	32903	
7300	0	32836	
7301	0	32840	
7302	0	32778	
7303	0	32704	
7304	0	32720	
7305	0	32720	
7306	0	32712	
7307	0	32800	
7308	0	32746	
7309	0	32696	
7310	0	32732	
7311	0	32844	
7312	0	33117	
7313	0	32872	
7314	0	32686	
7315	0	32644	
7316	0	32704	
7317	0	32808	
7318	0	32856	
7319	0	32808	
7320	0	32904	
7321	0	32928	
7322	0	32804	
7323	0	32744	
7324	0	32648	
7325	0	32676	
7326	0	32668	
7327	0	32656	
7328	0	32680	
7329	0	32745	
7330	0	32784	
7331	0	32788	
7332	0	32868	
7333	0	32836	
7334	0	32860	
7335	0	32806	
7336	0	32817	
7337	0	32868	
7338	0	32913	
7339	0	32817	
7340	0	32846	
7341	0	32812	
7342	0	32711	
7343	0	32692	
7344	0	32700	
7345	0	32684	
7346	0	32588	
7347	0	32636	
7348	0	32669	
7349	0	32740	
7350	0	32977	
7351	0	32830	
7352	0	32832	
7353	0	32801	
7354	0	32860	
7355	0	32872	
7356	0	32808	
7357	0	32940	
7358	0	32916	
7359	0	32904	
7360	0	32876	
7361	0	32844	
7362	0	32744	
7363	0	32776	
7364	0	32720	
7365	0	32692	
7366	0	32644	
7367	0	32564	
7368	0	32684	
7369	0	32760	
7370	0	32824	
7371	0	32792	
7372	0	32844	
7373	0	32837	
7374	0	32884	
7375	0	32820	
7376	0	32889	
7377	0	32972	
7378	0	32916	
7379	0	32816	
7380	0	32796	
7381	0	32680	
7382	0	32660	
7383	0	32692	
7384	0	32704	
7385	0	32692	
7386	0	32616	
7387	0	32704	
7388	0	32680	
7389	0	32693	
7390	0	32800	
7391	0	32849	
7392	0	32892	
7393	0	32908	
7394	0	32836	
7395	0	32808	
7396	0	32820	
7397	0	32776	
7398	0	32813	
7399	0	32900	
7400	0	32984	
7401	0	32848	
7402	0	32712	
7403	0	32732	
7404	0	32668	
7405	0	32772	
7406	0	32696	
7407	0	32628	
7408	0	32624	
7409	0	32729	
7410	0	32813	
7411	0	32748	
7412	0	32858	
7413	0	32993	
7414	0	32980	
7415	0	32985	
7416	0	32858	
7417	0	32756	
7418	0	32644	
7419	0	32660	
7420	0	32793	
7421	0	32772	
7422	0	32844	
7423	0	32768	
7424	0	32764	
7425	0	32724	
7426	0	32540	
7427	0	32632	
7428	0	32676	
7429	0	32632	
7430	0	32752	
7431	0	32828	
7432	0	32856	
7433	0	32916	
7434	0	32877	
7435	0	32932	
7436	0	32920	
7437	0	32756	
7438	0	32824	
7439	0	32708	
7440	0	32892	
7441	0	32872	
7442	0	32744	
7443	0	32712	
7444	0	32621	
7445	0	32708	
7446	0	32676	
7447	0	32584	
7448	0	32604	
7449	0	32724	
7450	0	32828	
7451	0	32888	
7452	0	32856	
7453	0	32856	
7454	0	32846	
7455	0	32732	
7456	0	32724	
7457	0	32816	
7458	0	32870	
7459	0	32756	
7460	0	32869	
7461	0	32796	
7462	0	32700	
7463	0	32732	
7464	0	32678	
7465	0	32740	
7466	0	32660	
7467	0	32692	
7468	0	32740	
7469	0	32796	
7470	0	32824	
7471	0	32921	
7472	0	32912	
7473	0	32916	
7474	0	32913	
7475	0	32852	
7476	0	32933	
7477	0	32932	
7478	0	32894	
7479	0	32836	
7480	0	32840	
7481	0	32876	
7482	0	32800	
7483	0	32676	
7484	0	32668	
7485	0	32646	
7486	0	32613	
7487	0	32508	
7488	0	32576	
7489	0	32764	
7490	0	32800	
7491	0	32816	
7492	0	32860	
7493	0	32845	
7494	0	32848	
7495	0	32749	
7496	0	32828	
7497	0	32852	
7498	0	32848	
7499	0	32804	
7500	0	32860	
7501	0	32901	
7502	0	32748	
7503	0	32644	
7504	0	32624	
7505	0	32652	
7506	0	32622	
7507	0	32685	
7508	0	32700	
7509	0	32744	
7510	0	32766	
7511	0	32796	
7512	0	32852	
7513	0	32808	
7514	0	32780	
7515	0	32844	
7516	0	32864	
7517	0	32884	
7518	0	32809	
7519	0	32792	
7520	0	32908	
7521	0	32868	
7522	0	32716	
7523	0	32760	
7524	0	32732	
7525	0	32726	
7526	0	32820	
7527	0	32724	
7528	0	32513	
7529	0	32481	
7530	0	32498	
7531	0	32728	
7532	0	32768	
7533	0	32825	
7534	0	32800	
7535	0	32804	
7536	0	32901	
7537	0	32960	
7538	0	32884	
7539	0	32896	
7540	0	32924	
7541	0	32868	
7542	0	32864	
7543	0	32654	
7544	0	32660	
7545	0	32668	
7546	0	32604	
7547	0	32644	
7548	0	32668	
7549	0	32640	
7550	0	32824	
7551	0	32820	
7552	0	32780	
7553	0	32836	
7554	0	32836	
7555	0	32812	
7556	0	32936	
7557	0	32872	
7558	0	32876	
7559	0	32864	
7560	0	32836	
7561	0	32864	
7562	0	32812	
7563	0	32752	
7564	0	32688	
7565	0	32768	
7566	0	32676	
7567	0	32716	
7568	0	32720	
7569	0	32672	
7570	0	32669	
7571	0	32796	
7572	0	32949	
7573	0	32904	
7574	0	32920	
7575	0	32852	
7576	0	32812	
7577	0	32908	
7578	0	32861	
7579	0	32824	
7580	0	32871	
7581	0	32876	
7582	0	32776	
7583	0	32713	
7584	0	32784	
7585	0	32772	
7586	0	32728	
7587	0	32652	
7588	0	32589	
7589	0	32704	
7590	0	32752	
7591	0	32832	
7592	0	32826	
7593	0	32908	
7594	0	32844	
7595	0	32888	
7596	0	32845	
7597	0	32829	
7598	0	32840	
7599	0	32913	
7600	0	32840	
7601	0	32879	
7602	0	32776	
7603	0	32752	
7604	0	32648	
7605	0	32729	
7606	0	32641	
7607	0	32564	
7608	0	32652	
7609	0	32717	
7610	0	32740	
7611	0	32816	
7612	0	32864	
7613	0	32884	
7614	0	32868	
7615	0	32807	
7616	0	32768	
7617	0	32844	
7618	0	32841	
7619	0	32844	
7620	0	32877	
7621	0	32832	
7622	0	32780	
7623	0	32728	
7624	0	32676	
7625	0	32680	
7626	0	32660	
7627	0	32762	
7628	0	32641	
7629	0	32688	
7630	0	32740	
7631	0	32768	
7632	0	32861	
7633	0	32772	
7634	0	32805	
7635	0	32852	
7636	0	32768	
7637	0	32838	
7638	0	32816	
7639	0	32793	
7640	0	32908	
7641	0	32876	
7642	0	32840	
7643	0	32736	
7644	0	32621	
7645	0	32720	
7646	0	32656	
7647	0	32548	
7648	0	32516	
7649	0	32700	
7650	0	32812	
7651	0	32792	
7652	0	32864	
7653	0	32764	
7654	0	32720	
7655	0	32772	
7656	0	32764	
7657	0	32924	
7658	0	32912	
7659	0	32808	
7660	0	32840	
7661	0	32852	
7662	0	32809	
7663	0	32684	
7664	0	32641	
7665	0	32732	
7666	0	32708	
7667	0	32757	
7668	0	32600	
7669	0	32548	
7670	0	32716	
7671	0	32828	
7672	0	32876	
7673	0	32864	
7674	0	32880	
7675	0	32828	
7676	0	32836	
7677	0	32892	
7678	0	32862	
7679	0	32841	
7680	0	32952	
7681	0	33052	
7682	0	32884	
7683	0	32672	
7684	0	32588	
7685	0	32576	
7686	0	32600	
7687	0	32532	
7688	0	32637	
7689	0	32728	
7690	0	32784	
7691	0	32832	
7692	0	32816	
7693	0	32812	
7694	0	32784	
7695	0	32836	
7696	0	32933	
7697	0	32904	
7698	0	32918	
7699	0	32816	
7700	0	32916	
7701	0	32908	
7702	0	32730	
7703	0	32614	
7704	0	32704	
7705	0	32664	
7706	0	32640	
7707	0	32612	
7708	0	32568	
7709	0	32680	
7710	0	32856	
7711	0	32796	
7712	0	32864	
7713	0	32888	
7714	0	32869	
7715	0	32844	
7716	0	32796	
7717	0	32860	
7718	0	32806	
7719	0	32828	
7720	0	32848	
7721	0	32846	
7722	0	32808	
7723	0	32848	
7724	0	32719	
7725	0	32740	
7726	0	32512	
7727	0	32528	
7728	0	32620	
7729	0	32775	
7730	0	32796	
7731	0	32932	
7732	0	32906	
7733	0	32980	
7734	0	32800	
7735	0	32773	
7736	0	32868	
7737	0	32904	
7738	0	32753	
7739	0	32752	
7740	0	32853	
7741	0	32778	
7742	0	32757	
7743	0	32672	
7744	0	32732	
7745	0	32800	
7746	0	32804	
7747	0	32588	
7748	0	32412	
7749	0	32616	
7750	0	32748	
7751	0	32733	
7752	0	32920	
7753	0	32840	
7754	0	32884	
7755	0	32860	
7756	0	32788	
7757	0	32832	
7758	0	32932	
7759	0	32853	
7760	0	32820	
7761	0	32810	
7762	0	32780	
7763	0	32720	
7764	0	32644	
7765	0	32616	
7766	0	32664	
7767	0	32706	
7768	0	32628	
7769	0	32744	
7770	0	32718	
7771	0	32792	
7772	0	32808	
7773	0	32809	
7774	0	32816	
7775	0	32836	
7776	0	32847	
7777	0	32956	
7778	0	32928	
7779	0	32892	
7780	0	32905	
7781	0	32912	
7782	0	32712	
7783	0	32616	
7784	0	32661	
7785	0	32680	
7786	0	32706	
7787	0	32752	
7788	0	32784	
7789	0	32668	
7790	0	32692	
7791	0	32768	
7792	0	32804	
7793	0	32804	
7794	0	32896	
7795	0	32929	
7796	0	32900	
7797	0	32916	
7798	0	32848	
7799	0	32856	
7800	0	32904	
7801	0	32842	
7802	0	32752	
7803	0	32728	
7804	0	32660	
7805	0	32748	
7806	0	32696	
7807	0	32660	
7808	0	32561	
7809	0	32580	
7810	0	32708	
7811	0	32816	
7812	0	32868	
7813	0	32860	
7814	0	32816	
7815	0	32832	
7816	0	32900	
7817	0	32981	
7818	0	32988	
7819	0	32928	
7820	0	32792	
7821	0	32708	
7822	0	32624	
7823	0	32720	
7824	0	32660	
7825	0	32774	
7826	0	32704	
7827	0	32632	
7828	0	32604	
7829	0	32636	
7830	0	32817	
7831	0	32822	
7832	0	32850	
7833	0	32808	
7834	0	32852	
7835	0	32804	
7836	0	32870	
7837	0	32905	
7838	0	32784	
7839	0	32869	
7840	0	32852	
7841	0	32862	
7842	0	32788	
7843	0	32774	
7844	0	32712	
7845	0	32744	
7846	0	32644	
7847	0	32724	
7848	0	32588	
7849	0	32720	
7850	0	32772	
7851	0	32836	
7852	0	32904	
7853	0	32864	
7854	0	32828	
7855	0	32892	
7856	0	32844	
7857	0	32813	
7858	0	32698	
7859	0	32817	
7860	0	32854	
7861	0	32870	
7862	0	32772	
7863	0	32697	
7864	0	32696	
7865	0	32692	
7866	0	32636	
7867	0	32592	
7868	0	32588	
7869	0	32664	
7870	0	32768	
7871	0	32824	
7872	0	32776	
7873	0	32924	
7874	0	32868	
7875	0	32848	
7876	0	32852	
7877	0	32825	
7878	0	32836	
7879	0	32841	
7880	0	32904	
7881	0	32844	
7882	0	32764	
7883	0	32780	
7884	0	32692	
7885	0	32728	
7886	0	32648	
7887	0	32637	
7888	0	32668	
7889	0	32706	
7890	0	32772	
7891	0	32749	
7892	0	32832	
7893	0	32884	
7894	0	32900	
7895	0	32888	
7896	0	32824	
7897	0	32832	
7898	0	32868	
7899	0	32832	
7900	0	32849	
7901	0	32812	
7902	0	32840	
7903	0	32816	
7904	0	32762	
7905	0	32704	
7906	0	32522	
7907	0	32584	
7908	0	32552	
7909	0	32664	
7910	0	32730	
7911	0	32804	
7912	0	32846	
7913	0	32872	
7914	0	32904	
7915	0	32880	
7916	0	32773	
7917	0	32836	
7918	0	32780	
7919	0	32772	
7920	0	32920	
7921	0	32860	
7922	0	32808	
7923	0	32636	
7924	0	32637	
7925	0	32801	
7926	0	32728	
7927	0	32712	
7928	0	32620	
7929	0	32624	
7930	0	32716	
7931	0	32736	
7932	0	32832	
7933	0	32884	
7934	0	32848	
7935	0	32844	
7936	0	32768	
7937	0	32972	
7938	0	32912	
7939	0	32916	
7940	0	32964	
7941	0	32817	
7942	0	32896	
7943	0	32700	
7944	0	32600	
7945	0	32540	
7946	0	32580	
7947	0	32660	
7948	0	32580	
7949	0	32640	
7950	0	32718	
7951	0	32832	
7952	0	32756	
7953	0	32784	
7954	0	32912	
7955	0	32792	
7956	0	32812	
7957	0	32972	
7958	0	33056	
7959	0	32960	
7960	0	32812	
7961	0	32724	
7962	0	32716	
7963	0	32812	
7964	0	32770	
7965	0	32714	
7966	0	32584	
7967	0	32544	
7968	0	32665	
7969	0	32636	
7970	0	32629	
7971	0	32876	
7972	0	32864	
7973	0	32820	
7974	0	32828	
7975	0	32876	
7976	0	32924	
7977	0	32888	
7978	0	32848	
7979	0	32877	
7980	0	32904	
7981	0	32836	
7982	0	32697	
7983	0	32732	
7984	0	32676	
7985	0	32692	
7986	0	32640	
7987	0	32612	
7988	0	32636	
7989	0	32710	
7990	0	32725	
7991	0	32780	
7992	0	32804	
7993	0	32820	
7994	0	32888	
7995	0	32893	
7996	0	32936	
7997	0	32864	
7998	0	32880	
7999	0	32850	
8000	0	32864	
8001	0	32884	
8002	0	32768	
8003	0	32732	
8004	0	32740	
8005	0	32732	
8006	0	32744	
8007	0	32628	
8008	0	32676	
8009	0	32720	
8010	0	32760	
8011	0	32836	
8012	0	32816	
8013	0	32832	
8014	0	32903	
8015	0	32860	
8016	0	32860	
8017	0	33001	
8018	0	32902	
8019	0	32840	
8020	0	32846	
8021	0	32732	
8022	0	32753	
8023	0	32824	
8024	0	32716	
8025	0	32693	
8026	0	32620	
8027	0	32672	
8028	0	32676	
8029	0	32645	
8030	0	32748	
8031	0	32839	
8032	0	32909	
8033	0	32892	
8034	0	32884	
8035	0	32840	
8036	0	32768	
8037	0	32848	
8038	0	32876	
8039	0	32756	
8040	0	32896	
8041	0	32828	
8042	0	32756	
8043	0	32756	
8044	0	32740	
8045	0	32692	
8046	0	32688	
8047	0	32676	
8048	0	32605	
8049	0	32636	
8050	0	32740	
8051	0	32852	
8052	0	32856	
8053	0	32884	
8054	0	32841	
8055	0	32780	
8056	0	32928	
8057	0	32916	
8058	0	32896	
8059	0	32928	
8060	0	32906	
8061	0	32812	
8062	0	32788	
8063	0	32672	
8064	0	32636	
8065	0	32623	
8066	0	32524	
8067	0	32476	
8068	0	32548	
8069	0	32716	
8070	0	32780	
8071	0	32805	
8072	0	32756	
8073	0	32884	
8074	0	32848	
8075	0	32820	
8076	0	32897	
8077	0	32792	
8078	0	32850	
8079	0	32837	
8080	0	32996	
8081	0	32854	
8082	0	32845	
8083	0	32756	
8084	0	32788	
8085	0	32728	
8086	0	32660	
8087	0	32604	
8088	0	32644	
8089	0	32716	
8090	0	32868	
8091	0	32892	
8092	0	32985	
8093	0	32896	
8094	0	32804	
8095	0	32836	
8096	0	32792	
8097	0	32812	
8098	0	32792	
8099	0	32812	
8100	0	32913	
8101	0	32876	
8102	0	32844	
8103	0	32762	
8104	0	32828	
8105	0	32676	
8106	0	32680	
8107	0	32552	
8108	0	32564	
8109	0	32648	
8110	0	32764	
8111	0	32772	
8112	0	32780	
8113	0	32868	
8114	0	32968	
8115	0	32828	
8116	0	32800	
8117	0	32840	
8118	0	32816	
8119	0	32876	
8120	0	32848	
8121	0	32860	
8122	0	32828	
8123	0	32688	
8124	0	32732	
8125	0	32708	
8126	0	32641	
8127	0	32628	
8128	0	32629	
8129	0	32672	
8130	0	32729	
8131	0	32804	
8132	0	32872	
8133	0	32884	
8134	0	32869	
8135	0	32792	
8136	0	32770	
8137	0	32879	
8138	0	32788	
8139	0	32866	
8140	0	32884	
8141	0	32836	
8142	0	32770	
8143	0	32672	
8144	0	32744	
8145	0	32704	
8146	0	32720	
8147	0	32676	
8148	0	32660	
8149	0	32662	
8150	0	32588	
8151	0	32668	
8152	0	32844	
8153	0	32932	
8154	0	32880	
8155	0	32812	
8156	0	32788	
8157	0	32912	
8158	0	32868	
8159	0	32876	
8160	0	32885	
8161	0	32848	
8162	0	32740	
8163	0	32709	
8164	0	32704	
8165	0	32680	
8166	0	32580	
8167	0	32612	
8168	0	32596	
8169	0	32744	
8170	0	32824	
8171	0	32836	
8172	0	32752	
8173	0	32830	
8174	0	32828	
8175	0	32901	
8176	0	32861	
8177	0	32944	
8178	0	33000	
8179	0	32836	
8180	0	32880	
8181	0	32724	
8182	0	32716	
8183	0	32716	
8184	0	32648	
8185	0	32741	
8186	0	32709	
8187	0	32774	
8188	0	32732	
8189	0	32708	
8190	0	32782	
8191	0	32708	
8192	0	32848	
8193	0	32854	
8194	0	32816	
8195	0	32808	
8196	0	32846	
8197	0	32952	
8198	0	32940	
8199	0	32740	
8200	0	32800	
8201	0	32828	
8202	0	32724	
8203	0	32680	
8204	0	32808	
8205	0	32712	
8206	0	32684	
8207	0	32580	
8208	0	32584	
8209	0	32625	
8210	0	32710	
8211	0	32792	
8212	0	32864	
8213	0	32924	
8214	0	32928	
8215	0	32896	
8216	0	32844	
8217	0	32852	
8218	0	32790	
8219	0	32877	
8220	0	32824	
8221	0	32788	
8222	0	32872	
8223	0	32812	
8224	0	32757	
8225	0	32645	
8226	0	32604	
8227	0	32660	
8228	0	32604	
8229	0	32700	
8230	0	32732	
8231	0	32816	
8232	0	32776	
8233	0	32816	
8234	0	32840	
8235	0	32852	
8236	0	32916	
8237	0	32853	
8238	0	32820	
8239	0	32858	
8240	0	32888	
8241	0	32924	
8242	0	32768	
8243	0	32676	
8244	0	32752	
8245	0	32840	
8246	0	32712	
8247	0	32616	
8248	0	32568	
8249	0	32560	
8250	0	32672	
8251	0	32772	
8252	0	32812	
8253	0	32892	
8254	0	32860	
8255	0	32848	
8256	0	32776	
8257	0	32845	
8258	0	32872	
8259	0	32828	
8260	0	32808	
8261	0	32916	
8262	0	32792	
8263	0	32760	
8264	0	32796	
8265	0	32718	
8266	0	32646	
8267	0	32584	
8268	0	32606	
8269	0	32756	
8270	0	32770	
8271	0	32860	
8272	0	32816	
8273	0	32824	
8274	0	32852	
8275	0	32864	
8276	0	32904	
8277	0	32842	
8278	0	32888	
8279	0	32864	
8280	0	32828	
8281	0	32756	
8282	0	32720	
8283	0	32792	
8284	0	32629	
8285	0	32662	
8286	0	32716	
8287	0	32672	
8288	0	32682	
8289	0	32696	
8290	0	32792	
8291	0	32804	
8292	0	32820	
8293	0	32836	
8294	0	32916	
8295	0	32928	
8296	0	32840	
8297	0	32904	
8298	0	32962	
8299	0	32856	
8300	0	32767	
8301	0	32740	
8302	0	32736	
8303	0	32760	
8304	0	32641	
8305	0	32700	
8306	0	32664	
8307	0	32574	
8308	0	32496	
8309	0	32649	
8310	0	32816	
8311	0	32940	
8312	0	32884	
8313	0	32836	
8314	0	32796	
8315	0	32748	
8316	0	32850	
8317	0	32917	
8318	0	32910	
8319	0	32884	
8320	0	32901	
8321	0	32908	
8322	0	32876	
8323	0	32821	
8324	0	32744	
8325	0	32600	
8326	0	32692	
8327	0	32700	
8328	0	32712	
8329	0	32760	
8330	0	32732	
8331	0	32780	
8332	0	32774	
8333	0	32892	
8334	0	32812	
8335	0	32832	
8336	0	32762	
8337	0	32868	
8338	0	32888	
8339	0	32852	
8340	0	32902	
8341	0	32776	
8342	0	32676	
8343	0	32760	
8344	0	32853	
8345	0	32800	
8346	0	32669	
8347	0	32532	
8348	0	32440	
8349	0	32558	
8350	0	32816	
8351	0	32856	
8352	0	32916	
8353	0	32824	
8354	0	32864	
8355	0	32808	
8356	0	32836	
8357	0	32856	
8358	0	32856	
8359	0	32841	
8360	0	32837	
8361	0	32833	
8362	0	32777	
8363	0	32768	
8364	0	32700	
8365	0	32728	
8366	0	32652	
8367	0	32664	
8368	0	32592	
8369	0	32680	
8370	0	32772	
8371	0	32816	
8372	0	32816	
8373	0	32848	
8374	0	32896	
8375	0	32928	
8376	0	32876	
8377	0	32948	
8378	0	32912	
8379	0	32849	
8380	0	32849	
8381	0	32880	
8382	0	32796	
8383	0	32686	
8384	0	32644	
8385	0	32676	
8386	0	32660	
8387	0	32668	
8388	0	32576	
8389	0	32672	
8390	0	32804	
8391	0	32796	
8392	0	32848	
8393	0	32821	
8394	0	32824	
8395	0	32778	
8396	0	32836	
8397	0	32808	
8398	0	32836	
8399	0	32852	
8400	0	32886	
8401	0	32852	
8402	0	32832	
8403	0	32788	
8404	0	32816	
8405	0	32669	
8406	0	32676	
8407	0	32698	
8408	0	32602	
8409	0	32552	
8410	0	32644	
8411	0	32664	
8412	0	32794	
8413	0	32920	
8414	0	32820	
8415	0	32720	
8416	0	32750	
8417	0	32784	
8418	0	32892	
8419	0	32860	
8420	0	32876	
8421	0	32868	
8422	0	32842	
8423	0	32760	
8424	0	32704	
8425	0	32732	
8426	0	32676	
8427	0	32621	
8428	0	32652	
8429	0	32622	
8430	0	32716	
8431	0	32776	
8432	0	32856	
8433	0	32884	
8434	0	32912	
8435	0	32937	
8436	0	32844	
8437	0	32884	
8438	0	32812	
8439	0	32759	
8440	0	32797	
8441	0	32920	
8442	0	32832	
8443	0	32864	
8444	0	32752	
8445	0	32632	
8446	0	32588	
8447	0	32608	
8448	0	32536	
8449	0	32580	
8450	0	32660	
8451	0	32760	
8452	0	32888	
8453	0	32892	
8454	0	32824	
8455	0	32888	
8456	0	32872	
8457	0	32861	
8458	0	32948	
8459	0	32820	
8460	0	32852	
8461	0	32908	
8462	0	32796	
8463	0	32704	
8464	0	32717	
8465	0	32676	
8466	0	32680	
8467	0	32636	
8468	0	32572	
8469	0	32670	
8470	0	32781	
8471	0	32864	
8472	0	32861	
8473	0	32817	
8474	0	32836	
8475	0	32792	
8476	0	32776	
8477	0	32908	
8478	0	32908	
8479	0	32932	
8480	0	32904	
8481	0	32876	
8482	0	32796	
8483	0	32736	
8484	0	32580	
8485	0	32716	
8486	0	32644	
8487	0	32564	
8488	0	32688	
8489	0	32736	
8490	0	32756	
8491	0	32800	
8492	0	32756	
8493	0	32804	
8494	0	32809	
8495	0	32790	
8496	0	32817	
8497	0	32916	
8498	0	32866	
8499	0	32840	
8500	0	32896	
8501	0	32904	
8502	0	32829	
8503	0	32737	
8504	0	32656	
8505	0	32660	
8506	0	32664	
8507	0	32653	
8508	0	32592	
8509	0	32664	
8510	0	32764	
8511	0	32812	
8512	0	32764	
8513	0	32804	
8514	0	32830	
8515	0	32764	
8516	0	32856	
8517	0	32849	
8518	0	32876	
8519	0	32860	
8520	0	32848	
8521	0	32896	
8522	0	32800	
8523	0	32748	
8524	0	32804	
8525	0	32676	
8526	0	32649	
8527	0	32764	
8528	0	32702	
8529	0	32687	
8530	0	32712	
8531	0	32820	
8532	0	32824	
8533	0	32804	
8534	0	32820	
8535	0	32876	
8536	0	32828	
8537	0	32800	
8538	0	32868	
8539	0	32856	
8540	0	32941	
8541	0	32868	
8542	0	32772	
8543	0	32772	
8544	0	32737	
8545	0	32732	
8546	0	32668	
8547	0	32576	
8548	0	32652	
8549	0	32688	
8550	0	32708	
8551	0	32849	
8552	0	32917	
8553	0	32900	
8554	0	32868	
8555	0	32760	
8556	0	32796	
8557	0	32804	
8558	0	32837	
8559	0	32844	
8560	0	32984	
8561	0	32868	
8562	0	32708	
8563	0	32721	
8564	0	32820	
8565	0	32800	
8566	0	32672	
8567	0	32676	
8568	0	32637	
8569	0	32656	
8570	0	32664	
8571	0	32720	
8572	0	32796	
8573	0	32860	
8574	0	32912	
8575	0	32948	
8576	0	32876	
8577	0	32788	
8578	0	32768	
8579	0	32825	
8580	0	32937	
8581	0	32892	
8582	0	32710	
8583	0	32684	
8584	0	32670	
8585	0	32672	
8586	0	32704	
8587	0	32596	
8588	0	32652	
8589	0	32720	
8590	0	32744	
8591	0	32836	
8592	0	32884	
8593	0	32928	
8594	0	32964	
8595	0	32808	
8596	0	32813	
8597	0	32833	
8598	0	32796	
8599	0	32714	
8600	0	32872	
8601	0	32834	
8602	0	32864	
8603	0	32812	
8604	0	32694	
8605	0	32572	
8606	0	32636	
8607	0	32592	
8608	0	32631	
8609	0	32756	
8610	0	32812	
8611	0	32892	
8612	0	32864	
8613	0	32852	
