# OpenSignals Text File Format. Version 1
# {"00:07:80:4D:2E:9E": {"sensor": ["CUSTOM/0.5/1.0/V"], "device name": "00:07:80:4D:2E:9E", "column": ["nSeq", "DI", "CH1"], "sync interval": 2, "time": "16:18:41.461", "comments": "", "device connection": "BTH00:07:80:4D:2E:9E", "channels": [1], "keywords": "", "mode": 0, "digital IO": [0, 1], "firmware version": 774, "device": "biosignalsplux", "position": 0, "sampling rate": 1000, "label": ["CH1"], "resolution": [16], "date": "2020-7-11", "special": [{}]}}
# EndOfHeader
0	0	32404	
1	0	32504	
2	0	32848	
3	0	32812	
4	0	32925	
5	0	32988	
6	0	32984	
7	0	32924	
8	0	33036	
9	0	32772	
10	0	32744	
11	0	32768	
12	0	33016	
13	0	33192	
14	0	33076	
15	0	32981	
16	0	32768	
17	0	32544	
18	0	32376	
19	0	32538	
20	0	32676	
21	0	32524	
22	0	32471	
23	0	32661	
24	0	32816	
25	0	32984	
26	0	32880	
27	0	32832	
28	0	32976	
29	0	32765	
30	0	32612	
31	0	32624	
32	0	32528	
33	0	32740	
34	0	32896	
35	0	32836	
36	0	32784	
37	0	32735	
38	0	32832	
39	0	32845	
40	0	32900	
41	0	33000	
42	0	32920	
43	0	32980	
44	0	32912	
45	0	32724	
46	0	32724	
47	0	32630	
48	0	32588	
49	0	32636	
50	0	32776	
51	0	32864	
52	0	32832	
53	0	32800	
54	0	32856	
55	0	32552	
56	0	32456	
57	0	32484	
58	0	32460	
59	0	32280	
60	0	32552	
61	0	32805	
62	0	33005	
63	0	33437	
64	0	33504	
65	0	33572	
66	0	33412	
67	0	33036	
68	0	32864	
69	0	32996	
70	0	32791	
71	0	32636	
72	0	32612	
73	0	32776	
74	0	32830	
75	0	32616	
76	0	32409	
77	0	32372	
78	0	32404	
79	0	32444	
80	0	32536	
81	0	32464	
82	0	32576	
83	0	32408	
84	0	32360	
85	0	32488	
86	0	32656	
87	0	32832	
88	0	32989	
89	0	33108	
90	0	33183	
91	0	33200	
92	0	33096	
93	0	32972	
94	0	32768	
95	0	32824	
96	0	33180	
97	0	33220	
98	0	32988	
99	0	32796	
100	0	32664	
101	0	32576	
102	0	32478	
103	0	32372	
104	0	32208	
105	0	32420	
106	0	32560	
107	0	32888	
108	0	32920	
109	0	33004	
110	0	32992	
111	0	33301	
112	0	33164	
113	0	32852	
114	0	32677	
115	0	32504	
116	0	32324	
117	0	32636	
118	0	32960	
119	0	32896	
120	0	32880	
121	0	32925	
122	0	32848	
123	0	32788	
124	0	32772	
125	0	32686	
126	0	32740	
127	0	32764	
128	0	32568	
129	0	32732	
130	0	32780	
131	0	32612	
132	0	32540	
133	0	32492	
134	0	32620	
135	0	32828	
136	0	33068	
137	0	32872	
138	0	32805	
139	0	32698	
140	0	32652	
141	0	32750	
142	0	32977	
143	0	32924	
144	0	32824	
145	0	32973	
146	0	32976	
147	0	32800	
148	0	32740	
149	0	32897	
150	0	33196	
151	0	33239	
152	0	33052	
153	0	32668	
154	0	32649	
155	0	32696	
156	0	32560	
157	0	32556	
158	0	32701	
159	0	32984	
160	0	32748	
161	0	32444	
162	0	32364	
163	0	32572	
164	0	32720	
165	0	32840	
166	0	32864	
167	0	32908	
168	0	32786	
169	0	32712	
170	0	32784	
171	0	32988	
172	0	33069	
173	0	32956	
174	0	32796	
175	0	32660	
176	0	32629	
177	0	32436	
178	0	32388	
179	0	32373	
180	0	32469	
181	0	32640	
182	0	33064	
183	0	33341	
184	0	33092	
185	0	33020	
186	0	33040	
187	0	32892	
188	0	32824	
189	0	32832	
190	0	32952	
191	0	32888	
192	0	32878	
193	0	32676	
194	0	32308	
195	0	32548	
196	0	32628	
197	0	32740	
198	0	32732	
199	0	32761	
200	0	32888	
201	0	32924	
202	0	32728	
203	0	32725	
204	0	32820	
205	0	32704	
206	0	32536	
207	0	32692	
208	0	32852	
209	0	33000	
210	0	33036	
211	0	32716	
212	0	32504	
213	0	32584	
214	0	32696	
215	0	32716	
216	0	32750	
217	0	32792	
218	0	33188	
219	0	33332	
220	0	33180	
221	0	32928	
222	0	32692	
223	0	32772	
224	0	32684	
225	0	32700	
226	0	32704	
227	0	32536	
228	0	32612	
229	0	32852	
230	0	32972	
231	0	33092	
232	0	32920	
233	0	32884	
234	0	32748	
235	0	32770	
236	0	32624	
237	0	32572	
238	0	32660	
239	0	32596	
240	0	32516	
241	0	32528	
242	0	32572	
243	0	32728	
244	0	32716	
245	0	32896	
246	0	32788	
247	0	32741	
248	0	32789	
249	0	32868	
250	0	33124	
251	0	32952	
252	0	32756	
253	0	32612	
254	0	32780	
255	0	33032	
256	0	32988	
257	0	32916	
258	0	32718	
259	0	32856	
260	0	32740	
261	0	32728	
262	0	32732	
263	0	32668	
264	0	32672	
265	0	32696	
266	0	32704	
267	0	32712	
268	0	32696	
269	0	32552	
270	0	32536	
271	0	32636	
272	0	32648	
273	0	32773	
274	0	32844	
275	0	32740	
276	0	32604	
277	0	32505	
278	0	32524	
279	0	32764	
280	0	32912	
281	0	32944	
282	0	33072	
283	0	33217	
284	0	33140	
285	0	33204	
286	0	33232	
287	0	33092	
288	0	33060	
289	0	33048	
290	0	32776	
291	0	32580	
292	0	32492	
293	0	32500	
294	0	32516	
295	0	32684	
296	0	32528	
297	0	32388	
298	0	32464	
299	0	32628	
300	0	32508	
301	0	32456	
302	0	32668	
303	0	32653	
304	0	32708	
305	0	32776	
306	0	32820	
307	0	32884	
308	0	32972	
309	0	33304	
310	0	33324	
311	0	33056	
312	0	33036	
313	0	33056	
314	0	33302	
315	0	33116	
316	0	33048	
317	0	32820	
318	0	32468	
319	0	32500	
320	0	32608	
321	0	32752	
322	0	32864	
323	0	32692	
324	0	32656	
325	0	32600	
326	0	32516	
327	0	32584	
328	0	32836	
329	0	32832	
330	0	32712	
331	0	32734	
332	0	32728	
333	0	32704	
334	0	32580	
335	0	32388	
336	0	32380	
337	0	32368	
338	0	32392	
339	0	32716	
340	0	32793	
341	0	32860	
342	0	32884	
343	0	32924	
344	0	33016	
345	0	33084	
346	0	33324	
347	0	33412	
348	0	33236	
349	0	33056	
350	0	33064	
351	0	32902	
352	0	32628	
353	0	32514	
354	0	32577	
355	0	32518	
356	0	32692	
357	0	32648	
358	0	32484	
359	0	32520	
360	0	32644	
361	0	32697	
362	0	32728	
363	0	32564	
364	0	32716	
365	0	32948	
366	0	32876	
367	0	32868	
368	0	32796	
369	0	32697	
370	0	32752	
371	0	32932	
372	0	33096	
373	0	33252	
374	0	33100	
375	0	32940	
376	0	32836	
377	0	32885	
378	0	32672	
379	0	32641	
380	0	32752	
381	0	32784	
382	0	32724	
383	0	32682	
384	0	32564	
385	0	32612	
386	0	32556	
387	0	32552	
388	0	32624	
389	0	32644	
390	0	32664	
391	0	32628	
392	0	32704	
393	0	32684	
394	0	32837	
395	0	32772	
396	0	32896	
397	0	32788	
398	0	32757	
399	0	32508	
400	0	32500	
401	0	32636	
402	0	32740	
403	0	33181	
404	0	33220	
405	0	33321	
406	0	33188	
407	0	32992	
408	0	32752	
409	0	32700	
410	0	32760	
411	0	32625	
412	0	32640	
413	0	32672	
414	0	32728	
415	0	32856	
416	0	33044	
417	0	33076	
418	0	32876	
419	0	32578	
420	0	32633	
421	0	32612	
422	0	32524	
423	0	32405	
424	0	32464	
425	0	32744	
426	0	32580	
427	0	32300	
428	0	32352	
429	0	32568	
430	0	32816	
431	0	32868	
432	0	33124	
433	0	33072	
434	0	33168	
435	0	33440	
436	0	33492	
437	0	33476	
438	0	33256	
439	0	33013	
440	0	32880	
441	0	32708	
442	0	32415	
443	0	32408	
444	0	32417	
445	0	32436	
446	0	32504	
447	0	32496	
448	0	32510	
449	0	32632	
450	0	32712	
451	0	32816	
452	0	32812	
453	0	32861	
454	0	32853	
455	0	32774	
456	0	32448	
457	0	32424	
458	0	32616	
459	0	32646	
460	0	32684	
461	0	32732	
462	0	32876	
463	0	32924	
464	0	33044	
465	0	33132	
466	0	33133	
467	0	33053	
468	0	32976	
469	0	33014	
470	0	33316	
471	0	33188	
472	0	32972	
473	0	32632	
474	0	32393	
475	0	32334	
476	0	32376	
477	0	32496	
478	0	32458	
479	0	32540	
480	0	32636	
481	0	32536	
482	0	32580	
483	0	32544	
484	0	32420	
485	0	32532	
486	0	32636	
487	0	32748	
488	0	32940	
489	0	33068	
490	0	33028	
491	0	33076	
492	0	33136	
493	0	33169	
494	0	33165	
495	0	33060	
496	0	32904	
497	0	32680	
498	0	32496	
499	0	32252	
500	0	32344	
501	0	32800	
502	0	32984	
503	0	33068	
504	0	33248	
505	0	33132	
506	0	33032	
507	0	33112	
508	0	32884	
509	0	32860	
510	0	32932	
511	0	32916	
512	0	32960	
513	0	32760	
514	0	32456	
515	0	32264	
516	0	32164	
517	0	32140	
518	0	32364	
519	0	32548	
520	0	32726	
521	0	32784	
522	0	32716	
523	0	32836	
524	0	32852	
525	0	32832	
526	0	32824	
527	0	32718	
528	0	32724	
529	0	32724	
530	0	32656	
531	0	32892	
532	0	32972	
533	0	33048	
534	0	33070	
535	0	32960	
536	0	32776	
537	0	32704	
538	0	32828	
539	0	32936	
540	0	32992	
541	0	32964	
542	0	32980	
543	0	32840	
544	0	32828	
545	0	32816	
546	0	32621	
547	0	32480	
548	0	32432	
549	0	32564	
550	0	32612	
551	0	32656	
552	0	32744	
553	0	32860	
554	0	32820	
555	0	32806	
556	0	32880	
557	0	32700	
558	0	32692	
559	0	32708	
560	0	32760	
561	0	32672	
562	0	32597	
563	0	32560	
564	0	32752	
565	0	32776	
566	0	32796	
567	0	32796	
568	0	32724	
569	0	32924	
570	0	33008	
571	0	32992	
572	0	32892	
573	0	32904	
574	0	32824	
575	0	33112	
576	0	33120	
577	0	32908	
578	0	32848	
579	0	32802	
580	0	32704	
581	0	32613	
582	0	32552	
583	0	32980	
584	0	33194	
585	0	33012	
586	0	32944	
587	0	32828	
588	0	32640	
589	0	32701	
590	0	32804	
591	0	32712	
592	0	32592	
593	0	32652	
594	0	32624	
595	0	32504	
596	0	32460	
597	0	32445	
598	0	32712	
599	0	32832	
600	0	32772	
601	0	32880	
602	0	32932	
603	0	32780	
604	0	32716	
605	0	32693	
606	0	32812	
607	0	32780	
608	0	32726	
609	0	32744	
610	0	32700	
611	0	32684	
612	0	32760	
613	0	32824	
614	0	32952	
615	0	33036	
616	0	32784	
617	0	32604	
618	0	32636	
619	0	32668	
620	0	32624	
621	0	32764	
622	0	32860	
623	0	32948	
624	0	32988	
625	0	32920	
626	0	32853	
627	0	32848	
628	0	32912	
629	0	32876	
630	0	32860	
631	0	32812	
632	0	32750	
633	0	32653	
634	0	32640	
635	0	32560	
636	0	32416	
637	0	32416	
638	0	32604	
639	0	32532	
640	0	32620	
641	0	32716	
642	0	32996	
643	0	33052	
644	0	33004	
645	0	32988	
646	0	33232	
647	0	33036	
648	0	32909	
649	0	33020	
650	0	33008	
651	0	33000	
652	0	32952	
653	0	32796	
654	0	32768	
655	0	32572	
656	0	32584	
657	0	32668	
658	0	32716	
659	0	32440	
660	0	32456	
661	0	32428	
662	0	32416	
663	0	32724	
664	0	32849	
665	0	32924	
666	0	32973	
667	0	32964	
668	0	33160	
669	0	33260	
670	0	33248	
671	0	33088	
672	0	32844	
673	0	32580	
674	0	32600	
675	0	32604	
676	0	32613	
677	0	32512	
678	0	32452	
679	0	32528	
680	0	32542	
681	0	32484	
682	0	32464	
683	0	32640	
684	0	32856	
685	0	32860	
686	0	32885	
687	0	33077	
688	0	33000	
689	0	33052	
690	0	32864	
691	0	32708	
692	0	32653	
693	0	32584	
694	0	32864	
695	0	32948	
696	0	32932	
697	0	32740	
698	0	32636	
699	0	32653	
700	0	32632	
701	0	32724	
702	0	32622	
703	0	32604	
704	0	32732	
705	0	32944	
706	0	33002	
707	0	33092	
708	0	32872	
709	0	32792	
710	0	32724	
711	0	33076	
712	0	33228	
713	0	33037	
714	0	32492	
715	0	32340	
716	0	32444	
717	0	32644	
718	0	32854	
719	0	32980	
720	0	32869	
721	0	32793	
722	0	32878	
723	0	33024	
724	0	32928	
725	0	32760	
726	0	32784	
727	0	32652	
728	0	32668	
729	0	32684	
730	0	32782	
731	0	32682	
732	0	32525	
733	0	32788	
734	0	32996	
735	0	32837	
736	0	32605	
737	0	32384	
738	0	32578	
739	0	32432	
740	0	32336	
741	0	32524	
742	0	32765	
743	0	33044	
744	0	33260	
745	0	33140	
746	0	32832	
747	0	32796	
748	0	32977	
749	0	33080	
750	0	33016	
751	0	32976	
752	0	32952	
753	0	33089	
754	0	33064	
755	0	32932	
756	0	32596	
757	0	32452	
758	0	32480	
759	0	32468	
760	0	32396	
761	0	32384	
762	0	32434	
763	0	32560	
764	0	32600	
765	0	32716	
766	0	32760	
767	0	32816	
768	0	32824	
769	0	32804	
770	0	32644	
771	0	32732	
772	0	32872	
773	0	32912	
774	0	32948	
775	0	33020	
776	0	32908	
777	0	33056	
778	0	33025	
779	0	33113	
780	0	32996	
781	0	32740	
782	0	32933	
783	0	33228	
784	0	33308	
785	0	33056	
786	0	32772	
787	0	32677	
788	0	32645	
789	0	32764	
790	0	32604	
791	0	32480	
792	0	32408	
793	0	32397	
794	0	32328	
795	0	32584	
796	0	32664	
797	0	32593	
798	0	32628	
799	0	32648	
800	0	32584	
801	0	32680	
802	0	32725	
803	0	32860	
804	0	32836	
805	0	32928	
806	0	32900	
807	0	32924	
808	0	32808	
809	0	32970	
810	0	33000	
811	0	32992	
812	0	32900	
813	0	32948	
814	0	32792	
815	0	32716	
816	0	32696	
817	0	32532	
818	0	32744	
819	0	32860	
820	0	32804	
821	0	32612	
822	0	32620	
823	0	32644	
824	0	32765	
825	0	32840	
826	0	32908	
827	0	32892	
828	0	32792	
829	0	32584	
830	0	32688	
831	0	32756	
832	0	32884	
833	0	33166	
834	0	33120	
835	0	32778	
836	0	32520	
837	0	32640	
838	0	32830	
839	0	33036	
840	0	32708	
841	0	33020	
842	0	33108	
843	0	33032	
844	0	32668	
845	0	32736	
846	0	33103	
847	0	33108	
848	0	32748	
849	0	32400	
850	0	32502	
851	0	32628	
852	0	32660	
853	0	32600	
854	0	32444	
855	0	32288	
856	0	32224	
857	0	32233	
858	0	32312	
859	0	32688	
860	0	32832	
861	0	32892	
862	0	33324	
863	0	33636	
864	0	33572	
865	0	33352	
866	0	33264	
867	0	32788	
868	0	32560	
869	0	32292	
870	0	32548	
871	0	32757	
872	0	32720	
873	0	32760	
874	0	32832	
875	0	32836	
876	0	32954	
877	0	32892	
878	0	32688	
879	0	32664	
880	0	32528	
881	0	32628	
882	0	32663	
883	0	32632	
884	0	32544	
885	0	32510	
886	0	32556	
887	0	32645	
888	0	32728	
889	0	32720	
890	0	32852	
891	0	32981	
892	0	33144	
893	0	33124	
894	0	33072	
895	0	33000	
896	0	33092	
897	0	32928	
898	0	32740	
899	0	32800	
900	0	32860	
901	0	32832	
902	0	32640	
903	0	32484	
904	0	32524	
905	0	32570	
906	0	32688	
907	0	32644	
908	0	32578	
909	0	32668	
910	0	32716	
911	0	32784	
912	0	32752	
913	0	32652	
914	0	32676	
915	0	32760	
916	0	32848	
917	0	32984	
918	0	32928	
919	0	33072	
920	0	33088	
921	0	33044	
922	0	32929	
923	0	33012	
924	0	33016	
925	0	33016	
926	0	32884	
927	0	32804	
928	0	32613	
929	0	32533	
930	0	32608	
931	0	32680	
932	0	32620	
933	0	32548	
934	0	32397	
935	0	32400	
936	0	32580	
937	0	32748	
938	0	32824	
939	0	32792	
940	0	32748	
941	0	32888	
942	0	32936	
943	0	32900	
944	0	32760	
945	0	32612	
946	0	32620	
947	0	32552	
948	0	32508	
949	0	32600	
950	0	32724	
951	0	32784	
952	0	32856	
953	0	33040	
954	0	32957	
955	0	32886	
956	0	33100	
957	0	33236	
958	0	33252	
959	0	33084	
960	0	32968	
961	0	33237	
962	0	33088	
963	0	32793	
964	0	32608	
965	0	32620	
966	0	32504	
967	0	32356	
968	0	32432	
969	0	32628	
970	0	32686	
971	0	32628	
972	0	32704	
973	0	32748	
974	0	32784	
975	0	32648	
976	0	32756	
977	0	32712	
978	0	32596	
979	0	32760	
980	0	32664	
981	0	32612	
982	0	32687	
983	0	32775	
984	0	32696	
985	0	32788	
986	0	32876	
987	0	32952	
988	0	33160	
989	0	33160	
990	0	33164	
991	0	33216	
992	0	32960	
993	0	32692	
994	0	32740	
995	0	32756	
996	0	32604	
997	0	32604	
998	0	32728	
999	0	32684	
1000	0	32652	
1001	0	32705	
1002	0	32753	
1003	0	32752	
1004	0	32576	
1005	0	32775	
1006	0	32700	
1007	0	32672	
1008	0	32696	
1009	0	32684	
1010	0	32680	
1011	0	32744	
1012	0	32696	
1013	0	32568	
1014	0	32768	
1015	0	32800	
1016	0	32645	
1017	0	32688	
1018	0	32808	
1019	0	32750	
1020	0	32820	
1021	0	32888	
1022	0	32704	
1023	0	32896	
1024	0	33056	
1025	0	33048	
1026	0	32828	
1027	0	32652	
1028	0	32876	
1029	0	33092	
1030	0	33253	
1031	0	33332	
1032	0	32860	
1033	0	32652	
1034	0	32621	
1035	0	32728	
1036	0	32680	
1037	0	32536	
1038	0	32392	
1039	0	32444	
1040	0	32724	
1041	0	32886	
1042	0	32997	
1043	0	33045	
1044	0	32976	
1045	0	32841	
1046	0	32740	
1047	0	32748	
1048	0	32797	
1049	0	32860	
1050	0	32772	
1051	0	32692	
1052	0	32645	
1053	0	32464	
1054	0	32304	
1055	0	32244	
1056	0	32532	
1057	0	32604	
1058	0	32676	
1059	0	32752	
1060	0	32864	
1061	0	33016	
1062	0	33320	
1063	0	33272	
1064	0	33276	
1065	0	32948	
1066	0	32840	
1067	0	33126	
1068	0	32952	
1069	0	32640	
1070	0	32368	
1071	0	32436	
1072	0	32561	
1073	0	32708	
1074	0	32768	
1075	0	32684	
1076	0	32689	
1077	0	32696	
1078	0	32580	
1079	0	32688	
1080	0	32916	
1081	0	32892	
1082	0	32920	
1083	0	32932	
1084	0	32929	
1085	0	32792	
1086	0	32576	
1087	0	32608	
1088	0	32660	
1089	0	32652	
1090	0	32632	
1091	0	32628	
1092	0	32701	
1093	0	32732	
1094	0	32796	
1095	0	32816	
1096	0	32964	
1097	0	33060	
1098	0	33005	
1099	0	33040	
1100	0	33048	
1101	0	32980	
1102	0	33012	
1103	0	32942	
1104	0	32464	
1105	0	32365	
1106	0	32356	
1107	0	32540	
1108	0	32860	
1109	0	32820	
1110	0	32756	
1111	0	32788	
1112	0	32956	
1113	0	33181	
1114	0	33460	
1115	0	32916	
1116	0	32770	
1117	0	32848	
1118	0	32816	
1119	0	32877	
1120	0	32836	
1121	0	32480	
1122	0	32460	
1123	0	32460	
1124	0	32520	
1125	0	32576	
1126	0	32520	
1127	0	32432	
1128	0	32600	
1129	0	32588	
1130	0	32669	
1131	0	32856	
1132	0	32940	
1133	0	33078	
1134	0	32858	
1135	0	32808	
1136	0	32804	
1137	0	32964	
1138	0	32980	
1139	0	32932	
1140	0	32768	
1141	0	32928	
1142	0	32976	
1143	0	32752	
1144	0	32629	
1145	0	32648	
1146	0	32524	
1147	0	32548	
1148	0	32660	
1149	0	32800	
1150	0	32784	
1151	0	32840	
1152	0	32916	
1153	0	32768	
1154	0	32700	
1155	0	32524	
1156	0	32600	
1157	0	32800	
1158	0	32892	
1159	0	32836	
1160	0	32900	
1161	0	32836	
1162	0	32824	
1163	0	32677	
1164	0	32869	
1165	0	33088	
1166	0	33168	
1167	0	33012	
1168	0	32960	
1169	0	32956	
1170	0	32688	
1171	0	32585	
1172	0	32832	
1173	0	32804	
1174	0	32860	
1175	0	32712	
1176	0	32549	
1177	0	32428	
1178	0	32416	
1179	0	32561	
1180	0	32644	
1181	0	32748	
1182	0	32724	
1183	0	32784	
1184	0	32825	
1185	0	32708	
1186	0	32556	
1187	0	32396	
1188	0	32540	
1189	0	32568	
1190	0	32552	
1191	0	32624	
1192	0	32832	
1193	0	32936	
1194	0	32852	
1195	0	32684	
1196	0	33172	
1197	0	33393	
1198	0	33364	
1199	0	33116	
1200	0	32940	
1201	0	32917	
1202	0	32896	
1203	0	32742	
1204	0	32736	
1205	0	32768	
1206	0	32772	
1207	0	32581	
1208	0	32504	
1209	0	32732	
1210	0	32716	
1211	0	32654	
1212	0	32584	
1213	0	32472	
1214	0	32652	
1215	0	32748	
1216	0	32840	
1217	0	32876	
1218	0	32852	
1219	0	32812	
1220	0	32900	
1221	0	33152	
1222	0	33153	
1223	0	33112	
1224	0	33016	
1225	0	32932	
1226	0	33024	
1227	0	33064	
1228	0	32940	
1229	0	32616	
1230	0	32388	
1231	0	32318	
1232	0	32448	
1233	0	32448	
1234	0	32480	
1235	0	32540	
1236	0	32544	
1237	0	32504	
1238	0	32569	
1239	0	32736	
1240	0	32820	
1241	0	33004	
1242	0	32941	
1243	0	32972	
1244	0	33032	
1245	0	33320	
1246	0	33144	
1247	0	32941	
1248	0	32719	
1249	0	32816	
1250	0	32984	
1251	0	32980	
1252	0	32813	
1253	0	32589	
1254	0	32908	
1255	0	33140	
1256	0	32964	
1257	0	32824	
1258	0	32916	
1259	0	32764	
1260	0	32652	
1261	0	32488	
1262	0	32440	
1263	0	32516	
1264	0	32580	
1265	0	32548	
1266	0	32536	
1267	0	32484	
1268	0	32620	
1269	0	32572	
1270	0	32676	
1271	0	32852	
1272	0	32876	
1273	0	32668	
1274	0	32816	
1275	0	33080	
1276	0	33124	
1277	0	32828	
1278	0	32524	
1279	0	32764	
1280	0	32972	
1281	0	32996	
1282	0	33037	
1283	0	32996	
1284	0	32768	
1285	0	32821	
1286	0	33024	
1287	0	32752	
1288	0	32600	
1289	0	32620	
1290	0	32705	
1291	0	32676	
1292	0	32696	
1293	0	32740	
1294	0	32828	
1295	0	32800	
1296	0	32796	
1297	0	32600	
1298	0	32484	
1299	0	32464	
1300	0	32628	
1301	0	32738	
1302	0	32744	
1303	0	32728	
1304	0	33012	
1305	0	33156	
1306	0	32989	
1307	0	32884	
1308	0	32840	
1309	0	32916	
1310	0	32884	
1311	0	32972	
1312	0	33024	
1313	0	32904	
1314	0	32632	
1315	0	32424	
1316	0	32420	
1317	0	32576	
1318	0	32380	
1319	0	32488	
1320	0	32632	
1321	0	32856	
1322	0	32888	
1323	0	32856	
1324	0	32886	
1325	0	32948	
1326	0	33156	
1327	0	33384	
1328	0	33366	
1329	0	32908	
1330	0	32580	
1331	0	32724	
1332	0	32924	
1333	0	32992	
1334	0	32892	
1335	0	32772	
1336	0	32604	
1337	0	32484	
1338	0	32472	
1339	0	32492	
1340	0	32612	
1341	0	32592	
1342	0	32620	
1343	0	32704	
1344	0	32660	
1345	0	32656	
1346	0	32612	
1347	0	32624	
1348	0	32688	
1349	0	32848	
1350	0	32944	
1351	0	33012	
1352	0	32850	
1353	0	32668	
1354	0	32536	
1355	0	32552	
1356	0	32540	
1357	0	32612	
1358	0	32888	
1359	0	33062	
1360	0	32976	
1361	0	33092	
1362	0	33064	
1363	0	33280	
1364	0	33312	
1365	0	33220	
1366	0	32920	
1367	0	32888	
1368	0	33244	
1369	0	33176	
1370	0	32664	
1371	0	32380	
1372	0	32220	
1373	0	32192	
1374	0	32132	
1375	0	32232	
1376	0	32496	
1377	0	32788	
1378	0	33004	
1379	0	32980	
1380	0	32988	
1381	0	33052	
1382	0	33028	
1383	0	32968	
1384	0	32940	
1385	0	32917	
1386	0	32784	
1387	0	32648	
1388	0	32776	
1389	0	32620	
1390	0	32604	
1391	0	32560	
1392	0	32518	
1393	0	32576	
1394	0	32657	
1395	0	32632	
1396	0	32584	
1397	0	32548	
1398	0	32836	
1399	0	33141	
1400	0	33212	
1401	0	32948	
1402	0	32668	
1403	0	32840	
1404	0	32848	
1405	0	33014	
1406	0	33032	
1407	0	32928	
1408	0	32940	
1409	0	32892	
1410	0	32708	
1411	0	32612	
1412	0	32520	
1413	0	32600	
1414	0	32578	
1415	0	32640	
1416	0	32860	
1417	0	32616	
1418	0	32329	
1419	0	32408	
1420	0	32648	
1421	0	32848	
1422	0	33088	
1423	0	32932	
1424	0	32880	
1425	0	32812	
1426	0	32888	
1427	0	32910	
1428	0	32796	
1429	0	32804	
1430	0	32916	
1431	0	33148	
1432	0	33412	
1433	0	33388	
1434	0	32953	
1435	0	32784	
1436	0	32636	
1437	0	32517	
1438	0	32528	
1439	0	32564	
1440	0	32613	
1441	0	32647	
1442	0	32656	
1443	0	32748	
1444	0	32724	
1445	0	32709	
1446	0	32672	
1447	0	32644	
1448	0	32876	
1449	0	33013	
1450	0	32884	
1451	0	32724	
1452	0	32428	
1453	0	32436	
1454	0	32668	
1455	0	32728	
1456	0	32640	
1457	0	32492	
1458	0	32408	
1459	0	32596	
1460	0	33044	
1461	0	33116	
1462	0	33048	
1463	0	32976	
1464	0	32948	
1465	0	32928	
1466	0	32847	
1467	0	32848	
1468	0	33040	
1469	0	32952	
1470	0	32764	
1471	0	32708	
1472	0	32729	
1473	0	32729	
1474	0	32785	
1475	0	32796	
1476	0	32784	
1477	0	32888	
1478	0	32580	
1479	0	32508	
1480	0	32644	
1481	0	32677	
1482	0	32560	
1483	0	32456	
1484	0	32373	
1485	0	32536	
1486	0	32628	
1487	0	32886	
1488	0	33052	
1489	0	33180	
1490	0	33030	
1491	0	33021	
1492	0	33100	
1493	0	33008	
1494	0	32868	
1495	0	32685	
1496	0	32956	
1497	0	32988	
1498	0	32752	
1499	0	32452	
1500	0	32672	
1501	0	33016	
1502	0	32924	
1503	0	32764	
1504	0	32912	
1505	0	33152	
1506	0	33272	
1507	0	33224	
1508	0	33124	
1509	0	32912	
1510	0	32848	
1511	0	32720	
1512	0	32560	
1513	0	32472	
1514	0	32380	
1515	0	32382	
1516	0	32476	
1517	0	32700	
1518	0	32720	
1519	0	32832	
1520	0	32740	
1521	0	32628	
1522	0	32544	
1523	0	32708	
1524	0	32780	
1525	0	32812	
1526	0	32752	
1527	0	32684	
1528	0	32680	
1529	0	32713	
1530	0	32736	
1531	0	32704	
1532	0	32800	
1533	0	32904	
1534	0	32749	
1535	0	32596	
1536	0	32620	
1537	0	32704	
1538	0	32713	
1539	0	32856	
1540	0	32884	
1541	0	32980	
1542	0	32976	
1543	0	33080	
1544	0	33052	
1545	0	33164	
1546	0	32892	
1547	0	32804	
1548	0	32696	
1549	0	32702	
1550	0	32800	
1551	0	32652	
1552	0	32612	
1553	0	32644	
1554	0	32705	
1555	0	32760	
1556	0	32621	
1557	0	32592	
1558	0	32732	
1559	0	32716	
1560	0	32672	
1561	0	32696	
1562	0	32712	
1563	0	32716	
1564	0	32716	
1565	0	32720	
1566	0	32716	
1567	0	32696	
1568	0	32756	
1569	0	32900	
1570	0	32844	
1571	0	32710	
1572	0	32540	
1573	0	32412	
1574	0	32660	
1575	0	32756	
1576	0	32680	
1577	0	32804	
1578	0	32968	
1579	0	33028	
1580	0	32964	
1581	0	32896	
1582	0	33012	
1583	0	33388	
1584	0	33389	
1585	0	33312	
1586	0	33184	
1587	0	32892	
1588	0	32704	
1589	0	32640	
1590	0	32696	
1591	0	33028	
1592	0	32968	
1593	0	32740	
1594	0	32580	
1595	0	32460	
1596	0	32300	
1597	0	32100	
1598	0	32112	
1599	0	32401	
1600	0	32529	
1601	0	32750	
1602	0	33012	
1603	0	33124	
1604	0	32952	
1605	0	32860	
1606	0	32880	
1607	0	32992	
1608	0	33164	
1609	0	32964	
1610	0	32630	
1611	0	32694	
1612	0	32761	
1613	0	32750	
1614	0	32716	
1615	0	32508	
1616	0	32668	
1617	0	32700	
1618	0	32632	
1619	0	32508	
1620	0	32676	
1621	0	32692	
1622	0	32816	
1623	0	32992	
1624	0	33060	
1625	0	33044	
1626	0	32852	
1627	0	32604	
1628	0	32456	
1629	0	32412	
1630	0	32532	
1631	0	32592	
1632	0	32692	
1633	0	32848	
1634	0	33005	
1635	0	33252	
1636	0	33541	
1637	0	33396	
1638	0	33268	
1639	0	33324	
1640	0	33200	
1641	0	32944	
1642	0	32868	
1643	0	32652	
1644	0	32398	
1645	0	32376	
1646	0	32462	
1647	0	32477	
1648	0	32468	
1649	0	32576	
1650	0	32476	
1651	0	32429	
1652	0	32532	
1653	0	32660	
1654	0	32672	
1655	0	32576	
1656	0	32597	
1657	0	32624	
1658	0	32552	
1659	0	32621	
1660	0	32792	
1661	0	32844	
1662	0	32904	
1663	0	32992	
1664	0	32960	
1665	0	32976	
1666	0	32996	
1667	0	33080	
1668	0	33229	
1669	0	33108	
1670	0	33204	
1671	0	33306	
1672	0	33248	
1673	0	33008	
1674	0	32964	
1675	0	32784	
1676	0	32320	
1677	0	32324	
1678	0	32412	
1679	0	32524	
1680	0	32537	
1681	0	32456	
1682	0	32532	
1683	0	32612	
1684	0	32688	
1685	0	32768	
1686	0	32868	
1687	0	32724	
1688	0	32588	
1689	0	32512	
1690	0	32705	
1691	0	32748	
1692	0	32808	
1693	0	32756	
1694	0	32744	
1695	0	32944	
1696	0	32949	
1697	0	32916	
1698	0	32792	
1699	0	32629	
1700	0	32612	
1701	0	32980	
1702	0	33236	
1703	0	33437	
1704	0	33175	
1705	0	32920	
1706	0	32996	
1707	0	32928	
1708	0	32880	
1709	0	32820	
1710	0	32684	
1711	0	32612	
1712	0	32568	
1713	0	32600	
1714	0	32641	
1715	0	32573	
1716	0	32428	
1717	0	32524	
1718	0	32670	
1719	0	32705	
1720	0	32808	
1721	0	32765	
1722	0	32836	
1723	0	32857	
1724	0	32993	
1725	0	32908	
1726	0	32668	
1727	0	32572	
1728	0	32492	
1729	0	32700	
1730	0	32972	
1731	0	32920	
1732	0	32724	
1733	0	32816	
1734	0	32940	
1735	0	32736	
1736	0	32788	
1737	0	32744	
1738	0	32632	
1739	0	32624	
1740	0	32568	
1741	0	32616	
1742	0	32776	
1743	0	32896	
1744	0	32892	
1745	0	33028	
1746	0	32988	
1747	0	32992	
1748	0	32840	
1749	0	32860	
1750	0	32828	
1751	0	32542	
1752	0	32576	
1753	0	32864	
1754	0	32744	
1755	0	32700	
1756	0	32896	
1757	0	32992	
1758	0	32968	
1759	0	32974	
1760	0	32936	
1761	0	32860	
1762	0	32848	
1763	0	32836	
1764	0	32500	
1765	0	32585	
1766	0	32880	
1767	0	32868	
1768	0	32964	
1769	0	32768	
1770	0	32564	
1771	0	32620	
1772	0	32460	
1773	0	32568	
1774	0	32581	
1775	0	32416	
1776	0	32556	
1777	0	32620	
1778	0	32912	
1779	0	33124	
1780	0	33040	
1781	0	33212	
1782	0	33438	
1783	0	33332	
1784	0	33190	
1785	0	32992	
1786	0	32756	
1787	0	32656	
1788	0	32592	
1789	0	32576	
1790	0	32540	
1791	0	32692	
1792	0	32736	
1793	0	32661	
1794	0	32633	
1795	0	32668	
1796	0	32632	
1797	0	32380	
1798	0	32460	
1799	0	32608	
1800	0	32580	
1801	0	32560	
1802	0	32664	
1803	0	32828	
1804	0	32992	
1805	0	33045	
1806	0	32948	
1807	0	32924	
1808	0	32820	
1809	0	32940	
1810	0	32920	
1811	0	32912	
1812	0	32700	
1813	0	32672	
1814	0	32704	
1815	0	32884	
1816	0	32932	
1817	0	33036	
1818	0	33133	
1819	0	32920	
1820	0	32812	
1821	0	32740	
1822	0	32640	
1823	0	32536	
1824	0	32496	
1825	0	32608	
1826	0	32680	
1827	0	32576	
1828	0	32509	
1829	0	32552	
1830	0	32676	
1831	0	32920	
1832	0	32980	
1833	0	33040	
1834	0	32984	
1835	0	32932	
1836	0	32801	
1837	0	32716	
1838	0	32476	
1839	0	32224	
1840	0	32176	
1841	0	32308	
1842	0	32552	
1843	0	32816	
1844	0	32896	
1845	0	33109	
1846	0	33400	
1847	0	33516	
1848	0	33480	
1849	0	33376	
1850	0	33309	
1851	0	32896	
1852	0	32960	
1853	0	32776	
1854	0	32812	
1855	0	32836	
1856	0	32520	
1857	0	32192	
1858	0	32116	
1859	0	32270	
1860	0	32460	
1861	0	32556	
1862	0	32484	
1863	0	32460	
1864	0	32556	
1865	0	32368	
1866	0	32388	
1867	0	32492	
1868	0	32648	
1869	0	32740	
1870	0	32861	
1871	0	33072	
1872	0	33252	
1873	0	33296	
1874	0	33304	
1875	0	33216	
1876	0	33188	
1877	0	33181	
1878	0	33212	
1879	0	33216	
1880	0	33005	
1881	0	32900	
1882	0	32856	
1883	0	32808	
1884	0	32636	
1885	0	32492	
1886	0	32532	
1887	0	32416	
1888	0	32396	
1889	0	32400	
1890	0	32568	
1891	0	32496	
1892	0	32630	
1893	0	32600	
1894	0	32652	
1895	0	32653	
1896	0	32540	
1897	0	32640	
1898	0	32796	
1899	0	32896	
1900	0	32964	
1901	0	33093	
1902	0	32988	
1903	0	32820	
1904	0	32732	
1905	0	32772	
1906	0	33048	
1907	0	32956	
1908	0	32844	
1909	0	32916	
1910	0	32974	
1911	0	32884	
1912	0	32716	
1913	0	32576	
1914	0	32636	
1915	0	32708	
1916	0	32664	
1917	0	32570	
1918	0	32472	
1919	0	32432	
1920	0	32916	
1921	0	33204	
1922	0	33080	
1923	0	32968	
1924	0	32916	
1925	0	32916	
1926	0	32660	
1927	0	32600	
1928	0	32493	
1929	0	32300	
1930	0	32328	
1931	0	32516	
1932	0	32680	
1933	0	32896	
1934	0	33121	
1935	0	33176	
1936	0	33132	
1937	0	33212	
1938	0	33152	
1939	0	33088	
1940	0	32897	
1941	0	32820	
1942	0	33016	
1943	0	32748	
1944	0	32576	
1945	0	32528	
1946	0	32580	
1947	0	32420	
1948	0	32488	
1949	0	32672	
1950	0	32804	
1951	0	32724	
1952	0	32576	
1953	0	32709	
1954	0	32760	
1955	0	32680	
1956	0	32864	
1957	0	32880	
1958	0	32908	
1959	0	32876	
1960	0	32912	
1961	0	32916	
1962	0	32830	
1963	0	32740	
1964	0	32841	
1965	0	32844	
1966	0	32748	
1967	0	32644	
1968	0	32628	
1969	0	32757	
1970	0	32940	
1971	0	32852	
1972	0	32628	
1973	0	32608	
1974	0	32672	
1975	0	32681	
1976	0	32692	
1977	0	32896	
1978	0	32928	
1979	0	32908	
1980	0	32676	
1981	0	32580	
1982	0	32836	
1983	0	33016	
1984	0	32992	
1985	0	32793	
1986	0	32805	
1987	0	33028	
1988	0	32948	
1989	0	32788	
1990	0	32720	
1991	0	32624	
1992	0	32452	
1993	0	32536	
1994	0	32584	
1995	0	32544	
1996	0	32696	
1997	0	32621	
1998	0	32800	
1999	0	33056	
2000	0	33088	
2001	0	33048	
2002	0	33000	
2003	0	32980	
2004	0	32660	
2005	0	32604	
2006	0	32652	
2007	0	32775	
2008	0	32758	
2009	0	32840	
2010	0	32876	
2011	0	32820	
2012	0	32704	
2013	0	32788	
2014	0	32892	
2015	0	32808	
2016	0	32812	
2017	0	32832	
2018	0	33004	
2019	0	32812	
2020	0	32669	
2021	0	32628	
2022	0	32596	
2023	0	32608	
2024	0	32520	
2025	0	32524	
2026	0	32532	
2027	0	32628	
2028	0	32729	
2029	0	32869	
2030	0	33004	
2031	0	33156	
2032	0	33096	
2033	0	33024	
2034	0	33061	
2035	0	32948	
2036	0	32948	
2037	0	32852	
2038	0	32948	
2039	0	32808	
2040	0	32484	
2041	0	32480	
2042	0	32852	
2043	0	32844	
2044	0	33044	
2045	0	32877	
2046	0	32500	
2047	0	32636	
2048	0	32806	
2049	0	32740	
2050	0	32512	
2051	0	32444	
2052	0	32492	
2053	0	32686	
2054	0	32704	
2055	0	32548	
2056	0	32640	
2057	0	32903	
2058	0	33032	
2059	0	32972	
2060	0	32848	
2061	0	32808	
2062	0	32845	
2063	0	33072	
2064	0	33160	
2065	0	33184	
2066	0	32904	
2067	0	32772	
2068	0	32708	
2069	0	32629	
2070	0	32486	
2071	0	32524	
2072	0	32568	
2073	0	32464	
2074	0	32576	
2075	0	32556	
2076	0	32696	
2077	0	32724	
2078	0	32799	
2079	0	33036	
2080	0	33260	
2081	0	33112	
2082	0	32993	
2083	0	32800	
2084	0	32744	
2085	0	32678	
2086	0	32712	
2087	0	32702	
2088	0	32736	
2089	0	32772	
2090	0	32740	
2091	0	32712	
2092	0	32936	
2093	0	32916	
2094	0	32728	
2095	0	32656	
2096	0	32744	
2097	0	32804	
2098	0	32872	
2099	0	32828	
2100	0	32692	
2101	0	32700	
2102	0	32816	
2103	0	32948	
2104	0	32840	
2105	0	32668	
2106	0	32676	
2107	0	32620	
2108	0	32488	
2109	0	32500	
2110	0	32649	
2111	0	32741	
2112	0	32833	
2113	0	32932	
2114	0	32892	
2115	0	32832	
2116	0	32672	
2117	0	32824	
2118	0	32858	
2119	0	32949	
2120	0	33052	
2121	0	32895	
2122	0	32612	
2123	0	32840	
2124	0	32958	
2125	0	32856	
2126	0	32828	
2127	0	32812	
2128	0	32864	
2129	0	32916	
2130	0	32996	
2131	0	32912	
2132	0	32680	
2133	0	32645	
2134	0	32636	
2135	0	32712	
2136	0	32772	
2137	0	32692	
2138	0	32508	
2139	0	32624	
2140	0	32741	
2141	0	32804	
2142	0	32820	
2143	0	32780	
2144	0	32876	
2145	0	32908	
2146	0	32720	
2147	0	32672	
2148	0	32852	
2149	0	32744	
2150	0	32709	
2151	0	32953	
2152	0	33028	
2153	0	32836	
2154	0	32812	
2155	0	32872	
2156	0	32788	
2157	0	32576	
2158	0	32488	
2159	0	32504	
2160	0	32488	
2161	0	32612	
2162	0	32732	
2163	0	32680	
2164	0	32756	
2165	0	32688	
2166	0	32548	
2167	0	32698	
2168	0	33004	
2169	0	32892	
2170	0	32936	
2171	0	32784	
2172	0	32760	
2173	0	32928	
2174	0	33204	
2175	0	33176	
2176	0	33304	
2177	0	33068	
2178	0	32840	
2179	0	32512	
2180	0	32516	
2181	0	32764	
2182	0	32608	
2183	0	32406	
2184	0	32576	
2185	0	32701	
2186	0	32865	
2187	0	32788	
2188	0	32661	
2189	0	32768	
2190	0	32832	
2191	0	32732	
2192	0	32832	
2193	0	32900	
2194	0	32872	
2195	0	32872	
2196	0	33016	
2197	0	33032	
2198	0	32764	
2199	0	32680	
2200	0	32528	
2201	0	32484	
2202	0	32500	
2203	0	32532	
2204	0	32644	
2205	0	32760	
2206	0	32760	
2207	0	32804	
2208	0	32724	
2209	0	32768	
2210	0	32876	
2211	0	32964	
2212	0	32962	
2213	0	32852	
2214	0	32740	
2215	0	32812	
2216	0	32876	
2217	0	33084	
2218	0	33196	
2219	0	33140	
2220	0	32940	
2221	0	32872	
2222	0	32668	
2223	0	32588	
2224	0	32736	
2225	0	32708	
2226	0	32700	
2227	0	32552	
2228	0	32557	
2229	0	32708	
2230	0	32840	
2231	0	32841	
2232	0	32708	
2233	0	32724	
2234	0	32704	
2235	0	32756	
2236	0	32772	
2237	0	32712	
2238	0	32740	
2239	0	32672	
2240	0	32870	
2241	0	32776	
2242	0	32604	
2243	0	32608	
2244	0	32420	
2245	0	32268	
2246	0	32600	
2247	0	33061	
2248	0	33024	
2249	0	32876	
2250	0	32912	
2251	0	33061	
2252	0	33124	
2253	0	33284	
2254	0	33192	
2255	0	33160	
2256	0	33125	
2257	0	32886	
2258	0	32460	
2259	0	32196	
2260	0	32388	
2261	0	32644	
2262	0	32694	
2263	0	32644	
2264	0	32596	
2265	0	32644	
2266	0	32596	
2267	0	32704	
2268	0	32696	
2269	0	32900	
2270	0	32988	
2271	0	32869	
2272	0	32700	
2273	0	32736	
2274	0	32696	
2275	0	32560	
2276	0	32580	
2277	0	32965	
2278	0	33084	
2279	0	33024	
2280	0	33032	
2281	0	32864	
2282	0	32924	
2283	0	33036	
2284	0	33180	
2285	0	32952	
2286	0	32644	
2287	0	32548	
2288	0	32472	
2289	0	32665	
2290	0	32672	
2291	0	32652	
2292	0	32530	
2293	0	32608	
2294	0	32549	
2295	0	32608	
2296	0	32632	
2297	0	32644	
2298	0	32564	
2299	0	32729	
2300	0	32888	
2301	0	32880	
2302	0	32836	
2303	0	32786	
2304	0	32840	
2305	0	32892	
2306	0	32732	
2307	0	32770	
2308	0	33240	
2309	0	33264	
2310	0	33136	
2311	0	32928	
2312	0	32804	
2313	0	32768	
2314	0	33032	
2315	0	32977	
2316	0	32612	
2317	0	32308	
2318	0	32241	
2319	0	32548	
2320	0	32728	
2321	0	32692	
2322	0	32677	
2323	0	32716	
2324	0	32892	
2325	0	32904	
2326	0	32972	
2327	0	33076	
2328	0	33096	
2329	0	32912	
2330	0	32646	
2331	0	32560	
2332	0	32516	
2333	0	32900	
2334	0	32942	
2335	0	32694	
2336	0	32556	
2337	0	32440	
2338	0	32504	
2339	0	32608	
2340	0	32612	
2341	0	32633	
2342	0	32636	
2343	0	32732	
2344	0	32936	
2345	0	32992	
2346	0	32932	
2347	0	32820	
2348	0	32924	
2349	0	33112	
2350	0	33128	
2351	0	33116	
2352	0	32852	
2353	0	32884	
2354	0	32900	
2355	0	32972	
2356	0	32864	
2357	0	32712	
2358	0	32652	
2359	0	32492	
2360	0	32364	
2361	0	32461	
2362	0	32460	
2363	0	32644	
2364	0	32864	
2365	0	32832	
2366	0	32900	
2367	0	33104	
2368	0	33017	
2369	0	33000	
2370	0	32788	
2371	0	32592	
2372	0	32557	
2373	0	32592	
2374	0	32588	
2375	0	32828	
2376	0	32860	
2377	0	32760	
2378	0	32932	
2379	0	33060	
2380	0	33124	
2381	0	33136	
2382	0	33128	
2383	0	33168	
2384	0	33008	
2385	0	32652	
2386	0	32396	
2387	0	32478	
2388	0	32588	
2389	0	32580	
2390	0	32484	
2391	0	32440	
2392	0	32584	
2393	0	32720	
2394	0	32644	
2395	0	32556	
2396	0	32496	
2397	0	32520	
2398	0	32660	
2399	0	32804	
2400	0	32877	
2401	0	33076	
2402	0	33076	
2403	0	33056	
2404	0	32944	
2405	0	32960	
2406	0	32933	
2407	0	33101	
2408	0	33182	
2409	0	33100	
2410	0	32732	
2411	0	32576	
2412	0	32637	
2413	0	32588	
2414	0	32514	
2415	0	32648	
2416	0	32750	
2417	0	32792	
2418	0	32832	
2419	0	32692	
2420	0	32596	
2421	0	32572	
2422	0	32620	
2423	0	32664	
2424	0	32636	
2425	0	32564	
2426	0	32489	
2427	0	32489	
2428	0	32484	
2429	0	32685	
2430	0	32808	
2431	0	32944	
2432	0	33073	
2433	0	33096	
2434	0	33012	
2435	0	33184	
2436	0	33134	
2437	0	33092	
2438	0	32940	
2439	0	32964	
2440	0	33052	
2441	0	32908	
2442	0	32632	
2443	0	32520	
2444	0	32661	
2445	0	32670	
2446	0	32720	
2447	0	33056	
2448	0	33064	
2449	0	32928	
2450	0	32901	
2451	0	32620	
2452	0	32304	
2453	0	32414	
2454	0	32525	
2455	0	32660	
2456	0	32672	
2457	0	32928	
2458	0	33056	
2459	0	33060	
2460	0	33149	
2461	0	33064	
2462	0	32952	
2463	0	32896	
2464	0	32828	
2465	0	32936	
2466	0	32837	
2467	0	32900	
2468	0	32736	
2469	0	32468	
2470	0	32486	
2471	0	32310	
2472	0	32412	
2473	0	32584	
2474	0	32628	
2475	0	32708	
2476	0	32668	
2477	0	32644	
2478	0	32564	
2479	0	32684	
2480	0	32876	
2481	0	33117	
2482	0	33220	
2483	0	33076	
2484	0	32832	
2485	0	32626	
2486	0	32648	
2487	0	32796	
2488	0	32928	
2489	0	32976	
2490	0	32964	
2491	0	32984	
2492	0	32908	
2493	0	32656	
2494	0	32440	
2495	0	32504	
2496	0	32816	
2497	0	32852	
2498	0	32704	
2499	0	32704	
2500	0	32620	
2501	0	32681	
2502	0	32780	
2503	0	32932	
2504	0	32820	
2505	0	32616	
2506	0	32640	
2507	0	32568	
2508	0	32508	
2509	0	32492	
2510	0	32380	
2511	0	32472	
2512	0	32544	
2513	0	32660	
2514	0	32878	
2515	0	33224	
2516	0	33196	
2517	0	33312	
2518	0	33564	
2519	0	33552	
2520	0	33384	
2521	0	33176	
2522	0	32880	
2523	0	32856	
2524	0	32924	
2525	0	32876	
2526	0	32741	
2527	0	32623	
2528	0	32380	
2529	0	32344	
2530	0	32350	
2531	0	32488	
2532	0	32544	
2533	0	32700	
2534	0	32832	
2535	0	32876	
2536	0	32965	
2537	0	33032	
2538	0	33048	
2539	0	32888	
2540	0	32728	
2541	0	32470	
2542	0	32596	
2543	0	32656	
2544	0	32516	
2545	0	32560	
2546	0	32460	
2547	0	32636	
2548	0	32928	
2549	0	32877	
2550	0	33008	
2551	0	32900	
2552	0	33020	
2553	0	33056	
2554	0	32869	
2555	0	32688	
2556	0	32512	
2557	0	32512	
2558	0	32556	
2559	0	32556	
2560	0	32597	
2561	0	32621	
2562	0	32840	
2563	0	32936	
2564	0	33048	
2565	0	33060	
2566	0	33032	
2567	0	32920	
2568	0	32856	
2569	0	32884	
2570	0	32792	
2571	0	32716	
2572	0	32636	
2573	0	32692	
2574	0	32704	
2575	0	32704	
2576	0	32604	
2577	0	32500	
2578	0	32598	
2579	0	32522	
2580	0	32588	
2581	0	32740	
2582	0	32684	
2583	0	32828	
2584	0	32952	
2585	0	33172	
2586	0	33152	
2587	0	33062	
2588	0	32944	
2589	0	33052	
2590	0	32984	
2591	0	32852	
2592	0	32692	
2593	0	32768	
2594	0	32844	
2595	0	32852	
2596	0	32644	
2597	0	32640	
2598	0	32688	
2599	0	32708	
2600	0	32932	
2601	0	33020	
2602	0	33052	
2603	0	32932	
2604	0	32624	
2605	0	32468	
2606	0	32128	
2607	0	32192	
2608	0	32212	
2609	0	32376	
2610	0	32532	
2611	0	32688	
2612	0	32780	
2613	0	33100	
2614	0	33040	
2615	0	33064	
2616	0	33244	
2617	0	33226	
2618	0	33252	
2619	0	33648	
2620	0	33512	
2621	0	33180	
2622	0	33124	
2623	0	32744	
2624	0	32480	
2625	0	32428	
2626	0	32460	
2627	0	32640	
2628	0	32774	
2629	0	32740	
2630	0	32812	
2631	0	32748	
2632	0	32752	
2633	0	32622	
2634	0	32449	
2635	0	32340	
2636	0	32396	
2637	0	32672	
2638	0	32884	
2639	0	32692	
2640	0	32596	
2641	0	32404	
2642	0	32576	
2643	0	32800	
2644	0	32880	
2645	0	32829	
2646	0	32848	
2647	0	32932	
2648	0	32917	
2649	0	32924	
2650	0	32848	
2651	0	33008	
2652	0	32976	
2653	0	32728	
2654	0	32652	
2655	0	32660	
2656	0	32656	
2657	0	32885	
2658	0	32844	
2659	0	32836	
2660	0	32680	
2661	0	32716	
2662	0	32764	
2663	0	32940	
2664	0	33100	
2665	0	33024	
2666	0	32988	
2667	0	32956	
2668	0	33025	
2669	0	32852	
2670	0	32600	
2671	0	32560	
2672	0	32526	
2673	0	32477	
2674	0	32568	
2675	0	32544	
2676	0	32684	
2677	0	32580	
2678	0	32548	
2679	0	32536	
2680	0	32620	
2681	0	32664	
2682	0	32864	
2683	0	32877	
2684	0	32806	
2685	0	32862	
2686	0	32972	
2687	0	32976	
2688	0	32848	
2689	0	32892	
2690	0	32804	
2691	0	32860	
2692	0	33156	
2693	0	32948	
2694	0	32868	
2695	0	32900	
2696	0	32893	
2697	0	32628	
2698	0	32332	
2699	0	32237	
2700	0	32560	
2701	0	32784	
2702	0	32832	
2703	0	32860	
2704	0	32928	
2705	0	32920	
2706	0	32860	
2707	0	33016	
2708	0	33280	
2709	0	33136	
2710	0	32805	
2711	0	32712	
2712	0	32572	
2713	0	32448	
2714	0	32492	
2715	0	32700	
2716	0	32944	
2717	0	33100	
2718	0	33036	
2719	0	32885	
2720	0	32864	
2721	0	32844	
2722	0	32944	
2723	0	32800	
2724	0	32764	
2725	0	32680	
2726	0	32520	
2727	0	32676	
2728	0	32724	
2729	0	32564	
2730	0	32460	
2731	0	32538	
2732	0	32540	
2733	0	32713	
2734	0	32852	
2735	0	32669	
2736	0	32744	
2737	0	32676	
2738	0	32832	
2739	0	32820	
2740	0	32917	
2741	0	33068	
2742	0	32936	
2743	0	32808	
2744	0	33012	
2745	0	32960	
2746	0	32616	
2747	0	32808	
2748	0	33064	
2749	0	32932	
2750	0	32868	
2751	0	32832	
2752	0	32694	
2753	0	32756	
2754	0	32536	
2755	0	32380	
2756	0	32588	
2757	0	32692	
2758	0	32716	
2759	0	32780	
2760	0	32736	
2761	0	32670	
2762	0	32568	
2763	0	32829	
2764	0	32807	
2765	0	32784	
2766	0	32752	
2767	0	32432	
2768	0	32396	
2769	0	32661	
2770	0	33048	
2771	0	33052	
2772	0	32908	
2773	0	32820	
2774	0	32848	
2775	0	33180	
2776	0	33388	
2777	0	33332	
2778	0	32932	
2779	0	32580	
2780	0	32484	
2781	0	32598	
2782	0	32804	
2783	0	32788	
2784	0	32972	
2785	0	32948	
2786	0	32940	
2787	0	33024	
2788	0	32716	
2789	0	32350	
2790	0	32220	
2791	0	32652	
2792	0	32768	
2793	0	32712	
2794	0	32504	
2795	0	32524	
2796	0	32576	
2797	0	32696	
2798	0	32748	
2799	0	32932	
2800	0	33136	
2801	0	33064	
2802	0	32837	
2803	0	32568	
2804	0	32672	
2805	0	32696	
2806	0	32696	
2807	0	32796	
2808	0	32996	
2809	0	33020	
2810	0	33044	
2811	0	32961	
2812	0	33008	
2813	0	33052	
2814	0	32912	
2815	0	32708	
2816	0	32928	
2817	0	32744	
2818	0	32548	
2819	0	32712	
2820	0	32792	
2821	0	32628	
2822	0	32662	
2823	0	32529	
2824	0	32408	
2825	0	32364	
2826	0	32440	
2827	0	32512	
2828	0	32604	
2829	0	32592	
2830	0	32656	
2831	0	32912	
2832	0	32964	
2833	0	33028	
2834	0	32864	
2835	0	32868	
2836	0	32996	
2837	0	33004	
2838	0	33044	
2839	0	32908	
2840	0	32860	
2841	0	32740	
2842	0	32728	
2843	0	32800	
2844	0	32956	
2845	0	32808	
2846	0	32644	
2847	0	32900	
2848	0	33102	
2849	0	33188	
2850	0	33032	
2851	0	32916	
2852	0	32536	
2853	0	32404	
2854	0	32285	
2855	0	32232	
2856	0	32320	
2857	0	32404	
2858	0	32604	
2859	0	32772	
2860	0	32904	
2861	0	32700	
2862	0	32797	
2863	0	33440	
2864	0	33524	
2865	0	33292	
2866	0	33300	
2867	0	33276	
2868	0	33281	
2869	0	33052	
2870	0	32780	
2871	0	32512	
2872	0	32436	
2873	0	32444	
2874	0	32500	
2875	0	32261	
2876	0	32176	
2877	0	32437	
2878	0	32564	
2879	0	32696	
2880	0	32852	
2881	0	32832	
2882	0	32928	
2883	0	32832	
2884	0	32740	
2885	0	32717	
2886	0	32936	
2887	0	33228	
2888	0	33121	
2889	0	33120	
2890	0	33158	
2891	0	32968	
2892	0	32756	
2893	0	32516	
2894	0	32364	
2895	0	32465	
2896	0	32532	
2897	0	32636	
2898	0	32753	
2899	0	32580	
2900	0	32473	
2901	0	32380	
2902	0	32480	
2903	0	32166	
2904	0	32244	
2905	0	32556	
2906	0	32540	
2907	0	32690	
2908	0	33088	
2909	0	33164	
2910	0	33444	
2911	0	33464	
2912	0	33460	
2913	0	33292	
2914	0	33256	
2915	0	33164	
2916	0	33300	
2917	0	33133	
2918	0	32782	
2919	0	32548	
2920	0	32560	
2921	0	32665	
2922	0	32612	
2923	0	32832	
2924	0	33040	
2925	0	32868	
2926	0	32712	
2927	0	32556	
2928	0	32592	
2929	0	32480	
2930	0	32412	
2931	0	32332	
2932	0	32318	
2933	0	32404	
2934	0	32480	
2935	0	32568	
2936	0	32644	
2937	0	32676	
2938	0	32704	
2939	0	32800	
2940	0	33032	
2941	0	33280	
2942	0	33184	
2943	0	32876	
2944	0	32588	
2945	0	32686	
2946	0	33072	
2947	0	32920	
2948	0	32876	
2949	0	32836	
2950	0	32988	
2951	0	32938	
2952	0	32760	
2953	0	32816	
2954	0	32884	
2955	0	32752	
2956	0	32420	
2957	0	32325	
2958	0	32476	
2959	0	32436	
2960	0	32728	
2961	0	32886	
2962	0	32637	
2963	0	32628	
2964	0	32877	
2965	0	33132	
2966	0	33296	
2967	0	33264	
2968	0	33340	
2969	0	33560	
2970	0	33488	
2971	0	33300	
2972	0	32954	
2973	0	32592	
2974	0	32174	
2975	0	32068	
2976	0	32297	
2977	0	32556	
2978	0	32740	
2979	0	32644	
2980	0	32696	
2981	0	32696	
2982	0	32713	
2983	0	32760	
2984	0	32652	
2985	0	32536	
2986	0	32512	
2987	0	32512	
2988	0	32700	
2989	0	32820	
2990	0	32864	
2991	0	32766	
2992	0	32724	
2993	0	33016	
2994	0	32844	
2995	0	32856	
2996	0	32777	
2997	0	32734	
2998	0	32596	
2999	0	32444	
3000	0	32368	
3001	0	32436	
3002	0	32671	
3003	0	32892	
3004	0	32760	
3005	0	32616	
3006	0	32618	
3007	0	32592	
3008	0	32900	
3009	0	33094	
3010	0	33012	
3011	0	33136	
3012	0	33424	
3013	0	33516	
3014	0	33364	
3015	0	33164	
3016	0	33264	
3017	0	33464	
3018	0	33120	
3019	0	32612	
3020	0	32644	
3021	0	32572	
3022	0	32504	
3023	0	32616	
3024	0	32676	
3025	0	32644	
3026	0	32496	
3027	0	32344	
3028	0	32152	
3029	0	32160	
3030	0	32305	
3031	0	32448	
3032	0	32477	
3033	0	32452	
3034	0	32616	
3035	0	32928	
3036	0	33068	
3037	0	33180	
3038	0	33184	
3039	0	32906	
3040	0	33256	
3041	0	33552	
3042	0	33293	
3043	0	32924	
3044	0	32720	
3045	0	32564	
3046	0	32556	
3047	0	32672	
3048	0	32668	
3049	0	32700	
3050	0	32708	
3051	0	32724	
3052	0	32576	
3053	0	32704	
3054	0	32636	
3055	0	32544	
3056	0	32528	
3057	0	32580	
3058	0	32568	
3059	0	32517	
3060	0	32552	
3061	0	32612	
3062	0	32676	
3063	0	32680	
3064	0	32736	
3065	0	32872	
3066	0	33076	
3067	0	33216	
3068	0	33288	
3069	0	33112	
3070	0	32992	
3071	0	33116	
3072	0	33164	
3073	0	33420	
3074	0	33316	
3075	0	32832	
3076	0	32588	
3077	0	32716	
3078	0	32560	
3079	0	32124	
3080	0	32152	
3081	0	32292	
3082	0	32556	
3083	0	32596	
3084	0	32784	
3085	0	32816	
3086	0	32884	
3087	0	32792	
3088	0	32688	
3089	0	32772	
3090	0	32696	
3091	0	32812	
3092	0	32796	
3093	0	32776	
3094	0	32932	
3095	0	32868	
3096	0	33008	
3097	0	32992	
3098	0	32850	
3099	0	32828	
3100	0	32718	
3101	0	32812	
3102	0	32860	
3103	0	32684	
3104	0	32528	
3105	0	32704	
3106	0	32798	
3107	0	32880	
3108	0	32980	
3109	0	33004	
3110	0	33004	
3111	0	32798	
3112	0	32592	
3113	0	32488	
3114	0	32388	
3115	0	32325	
3116	0	32192	
3117	0	32456	
3118	0	32960	
3119	0	33016	
3120	0	33218	
3121	0	33380	
3122	0	33065	
3123	0	32825	
3124	0	32712	
3125	0	32648	
3126	0	32684	
3127	0	32745	
3128	0	32776	
3129	0	32784	
3130	0	32808	
3131	0	32776	
3132	0	32775	
3133	0	32888	
3134	0	32792	
3135	0	32856	
3136	0	32766	
3137	0	32684	
3138	0	32756	
3139	0	32541	
3140	0	32508	
3141	0	32520	
3142	0	32556	
3143	0	32784	
3144	0	33036	
3145	0	33128	
3146	0	32996	
3147	0	32940	
3148	0	32848	
3149	0	32892	
3150	0	32822	
3151	0	32816	
3152	0	32852	
3153	0	32728	
3154	0	32677	
3155	0	32560	
3156	0	32345	
3157	0	32188	
3158	0	32364	
3159	0	32612	
3160	0	32676	
3161	0	32948	
3162	0	33292	
3163	0	33340	
3164	0	33272	
3165	0	33080	
3166	0	33185	
3167	0	33196	
3168	0	32772	
3169	0	32384	
3170	0	32676	
3171	0	32852	
3172	0	32718	
3173	0	32641	
3174	0	32593	
3175	0	32660	
3176	0	32584	
3177	0	32596	
3178	0	32804	
3179	0	32934	
3180	0	32644	
3181	0	32552	
3182	0	32662	
3183	0	32908	
3184	0	33124	
3185	0	33080	
3186	0	32908	
3187	0	32860	
3188	0	32749	
3189	0	32648	
3190	0	32716	
3191	0	32712	
3192	0	32416	
3193	0	32468	
3194	0	32660	
3195	0	32844	
3196	0	32908	
3197	0	33008	
3198	0	32932	
3199	0	32940	
3200	0	33180	
3201	0	33168	
3202	0	33048	
3203	0	32908	
3204	0	32716	
3205	0	32524	
3206	0	32544	
3207	0	32372	
3208	0	32432	
3209	0	32441	
3210	0	32388	
3211	0	32412	
3212	0	32586	
3213	0	32820	
3214	0	33036	
3215	0	33057	
3216	0	33176	
3217	0	33140	
3218	0	33070	
3219	0	32820	
3220	0	32748	
3221	0	32816	
3222	0	33068	
3223	0	32769	
3224	0	32709	
3225	0	32669	
3226	0	32733	
3227	0	32664	
3228	0	32533	
3229	0	32586	
3230	0	32544	
3231	0	32716	
3232	0	32756	
3233	0	32752	
3234	0	32644	
3235	0	32636	
3236	0	32853	
3237	0	32736	
3238	0	32597	
3239	0	32576	
3240	0	32548	
3241	0	32472	
3242	0	32364	
3243	0	32902	
3244	0	33364	
3245	0	33452	
3246	0	33460	
3247	0	33289	
3248	0	33160	
3249	0	33028	
3250	0	32789	
3251	0	32724	
3252	0	32737	
3253	0	32640	
3254	0	32532	
3255	0	32396	
3256	0	32293	
3257	0	32328	
3258	0	32360	
3259	0	32444	
3260	0	32520	
3261	0	32645	
3262	0	32948	
3263	0	33020	
3264	0	33172	
3265	0	33208	
3266	0	33296	
3267	0	33300	
3268	0	33444	
3269	0	33156	
3270	0	32775	
3271	0	32436	
3272	0	32270	
3273	0	32520	
3274	0	32676	
3275	0	32988	
3276	0	32968	
3277	0	33012	
3278	0	32869	
3279	0	32800	
3280	0	32764	
3281	0	32828	
3282	0	32696	
3283	0	32584	
3284	0	32189	
3285	0	32065	
3286	0	32160	
3287	0	32398	
3288	0	32396	
3289	0	32652	
3290	0	32680	
3291	0	33006	
3292	0	33136	
3293	0	33116	
3294	0	33260	
3295	0	33269	
3296	0	33340	
3297	0	33364	
3298	0	33412	
3299	0	33232	
3300	0	32725	
3301	0	32404	
3302	0	32320	
3303	0	32160	
3304	0	32440	
3305	0	32512	
3306	0	32604	
3307	0	32712	
3308	0	32812	
3309	0	32676	
3310	0	32648	
3311	0	32732	
3312	0	32848	
3313	0	33004	
3314	0	33112	
3315	0	32953	
3316	0	32741	
3317	0	32592	
3318	0	32432	
3319	0	32580	
3320	0	32813	
3321	0	32924	
3322	0	32908	
3323	0	32789	
3324	0	32656	
3325	0	32548	
3326	0	32436	
3327	0	32548	
3328	0	32720	
3329	0	32856	
3330	0	32996	
3331	0	32796	
3332	0	32752	
3333	0	32864	
3334	0	33138	
3335	0	33180	
3336	0	33154	
3337	0	33088	
3338	0	32980	
3339	0	32928	
3340	0	32813	
3341	0	32700	
3342	0	32832	
3343	0	33008	
3344	0	32764	
3345	0	32672	
3346	0	32624	
3347	0	32624	
3348	0	32596	
3349	0	32648	
3350	0	32580	
3351	0	32752	
3352	0	32762	
3353	0	32756	
3354	0	32780	
3355	0	32633	
3356	0	32604	
3357	0	32540	
3358	0	32484	
3359	0	32556	
3360	0	32824	
3361	0	32904	
3362	0	33140	
3363	0	33240	
3364	0	33200	
3365	0	32956	
3366	0	32552	
3367	0	32580	
3368	0	33200	
3369	0	33412	
3370	0	33204	
3371	0	32900	
3372	0	32444	
3373	0	32500	
3374	0	32572	
3375	0	32800	
3376	0	32704	
3377	0	32445	
3378	0	32424	
3379	0	32385	
3380	0	32401	
3381	0	32397	
3382	0	32308	
3383	0	32404	
3384	0	32604	
3385	0	32784	
3386	0	33012	
3387	0	33052	
3388	0	32924	
3389	0	33124	
3390	0	33408	
3391	0	33444	
3392	0	33260	
3393	0	33440	
3394	0	33404	
3395	0	32772	
3396	0	32632	
3397	0	32662	
3398	0	32580	
3399	0	32472	
3400	0	32288	
3401	0	32468	
3402	0	32508	
3403	0	32468	
3404	0	32472	
3405	0	32652	
3406	0	32812	
3407	0	32744	
3408	0	32720	
3409	0	32816	
3410	0	32868	
3411	0	32724	
3412	0	32812	
3413	0	32756	
3414	0	32632	
3415	0	32964	
3416	0	33084	
3417	0	32941	
3418	0	32916	
3419	0	33028	
3420	0	32976	
3421	0	33056	
3422	0	33022	
3423	0	32844	
3424	0	32808	
3425	0	32628	
3426	0	32480	
3427	0	32468	
3428	0	32449	
3429	0	32408	
3430	0	32456	
3431	0	32556	
3432	0	32700	
3433	0	32776	
3434	0	32756	
3435	0	32961	
3436	0	33076	
3437	0	32968	
3438	0	32990	
3439	0	32740	
3440	0	32520	
3441	0	32472	
3442	0	32744	
3443	0	32612	
3444	0	32256	
3445	0	32425	
3446	0	32812	
3447	0	32900	
3448	0	32936	
3449	0	33188	
3450	0	33436	
3451	0	33608	
3452	0	33648	
3453	0	33408	
3454	0	33256	
3455	0	32908	
3456	0	32788	
3457	0	32712	
3458	0	32644	
3459	0	32288	
3460	0	32196	
3461	0	32344	
3462	0	32464	
3463	0	32220	
3464	0	32049	
3465	0	32272	
3466	0	32436	
3467	0	32612	
3468	0	32756	
3469	0	32952	
3470	0	33087	
3471	0	33073	
3472	0	32924	
3473	0	32864	
3474	0	32968	
3475	0	33112	
3476	0	33200	
3477	0	33120	
3478	0	32829	
3479	0	32708	
3480	0	32558	
3481	0	32520	
3482	0	32732	
3483	0	32764	
3484	0	32884	
3485	0	32980	
3486	0	32860	
3487	0	32880	
3488	0	32984	
3489	0	33037	
3490	0	33224	
3491	0	32837	
3492	0	32552	
3493	0	32428	
3494	0	32244	
3495	0	32312	
3496	0	32432	
3497	0	32652	
3498	0	32676	
3499	0	32756	
3500	0	32694	
3501	0	32686	
3502	0	32920	
3503	0	32880	
3504	0	32940	
3505	0	32888	
3506	0	32832	
3507	0	32924	
3508	0	32832	
3509	0	32854	
3510	0	32789	
3511	0	32804	
3512	0	32944	
3513	0	32948	
3514	0	32928	
3515	0	32876	
3516	0	32656	
3517	0	32540	
3518	0	32932	
3519	0	33129	
3520	0	32853	
3521	0	32804	
3522	0	32920	
3523	0	32952	
3524	0	32821	
3525	0	32676	
3526	0	32660	
3527	0	32524	
3528	0	32616	
3529	0	32720	
3530	0	32604	
3531	0	32476	
3532	0	32512	
3533	0	32529	
3534	0	32604	
3535	0	32682	
3536	0	32712	
3537	0	32874	
3538	0	32768	
3539	0	32841	
3540	0	32884	
3541	0	32956	
3542	0	32932	
3543	0	32937	
3544	0	32996	
3545	0	33096	
3546	0	33144	
3547	0	33060	
3548	0	32966	
3549	0	32600	
3550	0	32516	
3551	0	32608	
3552	0	32604	
3553	0	32452	
3554	0	32640	
3555	0	32884	
3556	0	32664	
3557	0	32648	
3558	0	32661	
3559	0	32720	
3560	0	32916	
3561	0	33076	
3562	0	32740	
3563	0	32574	
3564	0	32728	
3565	0	33064	
3566	0	33232	
3567	0	33160	
3568	0	33044	
3569	0	32992	
3570	0	32900	
3571	0	32708	
3572	0	32660	
3573	0	32500	
3574	0	32396	
3575	0	32476	
3576	0	32672	
3577	0	32796	
3578	0	32870	
3579	0	32972	
3580	0	32980	
3581	0	32997	
3582	0	32893	
3583	0	32736	
3584	0	32548	
3585	0	32380	
3586	0	32256	
3587	0	32400	
3588	0	32592	
3589	0	32788	
3590	0	32644	
3591	0	32832	
3592	0	32820	
3593	0	32728	
3594	0	32996	
3595	0	33008	
3596	0	32776	
3597	0	32968	
3598	0	33136	
3599	0	33320	
3600	0	33152	
3601	0	32692	
3602	0	32389	
3603	0	32360	
3604	0	32724	
3605	0	32776	
3606	0	32768	
3607	0	32600	
3608	0	32560	
3609	0	32766	
3610	0	32868	
3611	0	32736	
3612	0	32852	
3613	0	32864	
3614	0	32960	
3615	0	32868	
3616	0	32928	
3617	0	33096	
3618	0	32789	
3619	0	32508	
3620	0	32372	
3621	0	32452	
3622	0	32552	
3623	0	32716	
3624	0	32816	
3625	0	32716	
3626	0	32884	
3627	0	32976	
3628	0	32944	
3629	0	32768	
3630	0	32864	
3631	0	32800	
3632	0	32924	
3633	0	33096	
3634	0	33152	
3635	0	32952	
3636	0	32824	
3637	0	32696	
3638	0	32760	
3639	0	32632	
3640	0	32796	
3641	0	32680	
3642	0	32612	
3643	0	32752	
3644	0	32900	
3645	0	32964	
3646	0	32852	
3647	0	32600	
3648	0	32420	
3649	0	32520	
3650	0	32600	
3651	0	32576	
3652	0	32844	
3653	0	32944	
3654	0	32800	
3655	0	32785	
3656	0	32821	
3657	0	32904	
3658	0	32856	
3659	0	32820	
3660	0	32804	
3661	0	32872	
3662	0	32924	
3663	0	32784	
3664	0	32672	
3665	0	32732	
3666	0	32936	
3667	0	33036	
3668	0	32880	
3669	0	32768	
3670	0	32816	
3671	0	32840	
3672	0	32708	
3673	0	32854	
3674	0	32776	
3675	0	32824	
3676	0	32785	
3677	0	32604	
3678	0	32472	
3679	0	32440	
3680	0	32628	
3681	0	32772	
3682	0	32800	
3683	0	32672	
3684	0	32704	
3685	0	32698	
3686	0	32708	
3687	0	32604	
3688	0	32508	
3689	0	32572	
3690	0	32698	
3691	0	32764	
3692	0	32800	
3693	0	32992	
3694	0	33264	
3695	0	33200	
3696	0	33216	
3697	0	33108	
3698	0	33032	
3699	0	32680	
3700	0	32872	
3701	0	32812	
3702	0	32716	
3703	0	32624	
3704	0	32780	
3705	0	32704	
3706	0	32640	
3707	0	32528	
3708	0	32840	
3709	0	32740	
3710	0	32684	
3711	0	32727	
3712	0	32796	
3713	0	32924	
3714	0	33048	
3715	0	32876	
3716	0	32992	
3717	0	32901	
3718	0	32868	
3719	0	32864	
3720	0	32600	
3721	0	32524	
3722	0	32360	
3723	0	32318	
3724	0	32396	
3725	0	32448	
3726	0	32808	
3727	0	33068	
3728	0	33148	
3729	0	33184	
3730	0	32964	
3731	0	32808	
3732	0	32620	
3733	0	32632	
3734	0	32556	
3735	0	32660	
3736	0	32704	
3737	0	32720	
3738	0	32740	
3739	0	32676	
3740	0	32772	
3741	0	32884	
3742	0	32672	
3743	0	32869	
3744	0	32988	
3745	0	32988	
3746	0	33076	
3747	0	32956	
3748	0	32784	
3749	0	32648	
3750	0	32664	
3751	0	32596	
3752	0	32700	
3753	0	32640	
3754	0	32428	
3755	0	32324	
3756	0	32415	
3757	0	32588	
3758	0	32881	
3759	0	32901	
3760	0	32900	
3761	0	33012	
3762	0	32804	
3763	0	32608	
3764	0	32780	
3765	0	32960	
3766	0	32879	
3767	0	32960	
3768	0	33182	
3769	0	33120	
3770	0	32888	
3771	0	32798	
3772	0	32936	
3773	0	33074	
3774	0	32901	
3775	0	32592	
3776	0	32484	
3777	0	32672	
3778	0	32524	
3779	0	32852	
3780	0	33244	
3781	0	33072	
3782	0	33116	
3783	0	33112	
3784	0	32808	
3785	0	32534	
3786	0	32608	
3787	0	32488	
3788	0	32624	
3789	0	32476	
3790	0	32620	
3791	0	32676	
3792	0	32512	
3793	0	32484	
3794	0	32540	
3795	0	32705	
3796	0	32710	
3797	0	32756	
3798	0	32756	
3799	0	32612	
3800	0	32697	
3801	0	32820	
3802	0	33092	
3803	0	33288	
3804	0	33144	
3805	0	32900	
3806	0	32844	
3807	0	32764	
3808	0	32860	
3809	0	32928	
3810	0	32677	
3811	0	32388	
3812	0	32296	
3813	0	32516	
3814	0	32500	
3815	0	32504	
3816	0	32368	
3817	0	32544	
3818	0	32574	
3819	0	32708	
3820	0	32948	
3821	0	32888	
3822	0	32889	
3823	0	32965	
3824	0	32996	
3825	0	33160	
3826	0	33196	
3827	0	33118	
3828	0	33240	
3829	0	33284	
3830	0	33188	
3831	0	32812	
3832	0	32541	
3833	0	32636	
3834	0	32712	
3835	0	32504	
3836	0	32444	
3837	0	32492	
3838	0	32520	
3839	0	32637	
3840	0	32804	
3841	0	33020	
3842	0	33208	
3843	0	33412	
3844	0	33050	
3845	0	32996	
3846	0	32908	
3847	0	32780	
3848	0	32412	
3849	0	32420	
3850	0	32632	
3851	0	32516	
3852	0	32300	
3853	0	32376	
3854	0	32549	
3855	0	32636	
3856	0	32744	
3857	0	32796	
3858	0	32980	
3859	0	33224	
3860	0	33220	
3861	0	33032	
3862	0	32836	
3863	0	32844	
3864	0	32887	
3865	0	32876	
3866	0	32920	
3867	0	32988	
3868	0	32764	
3869	0	32484	
3870	0	32327	
3871	0	32292	
3872	0	32388	
3873	0	32396	
3874	0	32488	
3875	0	32374	
3876	0	32448	
3877	0	32640	
3878	0	32648	
3879	0	33004	
3880	0	32944	
3881	0	33000	
3882	0	33192	
3883	0	33325	
3884	0	33105	
3885	0	33056	
3886	0	33192	
3887	0	33244	
3888	0	33234	
3889	0	33080	
3890	0	32714	
3891	0	32493	
3892	0	32431	
3893	0	32516	
3894	0	32684	
3895	0	32684	
3896	0	32804	
3897	0	32776	
3898	0	32800	
3899	0	32836	
3900	0	32632	
3901	0	32432	
3902	0	32508	
3903	0	32664	
3904	0	32764	
3905	0	32736	
3906	0	32724	
3907	0	32884	
3908	0	32836	
3909	0	32716	
3910	0	32692	
3911	0	32600	
3912	0	32633	
3913	0	32552	
3914	0	32592	
3915	0	32557	
3916	0	32708	
3917	0	32772	
3918	0	32868	
3919	0	33096	
3920	0	33169	
3921	0	33268	
3922	0	33136	
3923	0	33232	
3924	0	33046	
3925	0	32856	
3926	0	32734	
3927	0	32764	
3928	0	32692	
3929	0	32520	
3930	0	32528	
3931	0	32296	
3932	0	32108	
3933	0	32080	
3934	0	32272	
3935	0	32568	
3936	0	32752	
3937	0	32865	
3938	0	32932	
3939	0	33033	
3940	0	33296	
3941	0	33429	
3942	0	33364	
3943	0	33312	
3944	0	33484	
3945	0	33472	
3946	0	33060	
3947	0	32812	
3948	0	32600	
3949	0	32384	
3950	0	32368	
3951	0	32576	
3952	0	32824	
3953	0	32784	
3954	0	32470	
3955	0	32264	
3956	0	32293	
3957	0	32416	
3958	0	32588	
3959	0	32696	
3960	0	32884	
3961	0	33061	
3962	0	33028	
3963	0	32988	
3964	0	32944	
3965	0	32900	
3966	0	32900	
3967	0	33037	
3968	0	32916	
3969	0	32716	
3970	0	32508	
3971	0	32454	
3972	0	32396	
3973	0	32564	
3974	0	32636	
3975	0	32698	
3976	0	32956	
3977	0	33009	
3978	0	32985	
3979	0	32938	
3980	0	32928	
3981	0	32672	
3982	0	32584	
3983	0	32332	
3984	0	32488	
3985	0	32660	
3986	0	32812	
3987	0	32844	
3988	0	32776	
3989	0	32848	
3990	0	33100	
3991	0	33336	
3992	0	33072	
3993	0	32916	
3994	0	33168	
3995	0	33312	
3996	0	33204	
3997	0	32880	
3998	0	32604	
3999	0	32544	
4000	0	32560	
4001	0	32624	
4002	0	32681	
4003	0	32628	
4004	0	32345	
4005	0	32148	
4006	0	32152	
4007	0	32136	
4008	0	32388	
4009	0	32664	
4010	0	32620	
4011	0	32752	
4012	0	32900	
4013	0	33192	
4014	0	33296	
4015	0	33549	
4016	0	33724	
4017	0	33596	
4018	0	33368	
4019	0	32964	
4020	0	32654	
4021	0	32660	
4022	0	32480	
4023	0	32376	
4024	0	32704	
4025	0	32732	
4026	0	32644	
4027	0	32584	
4028	0	32580	
4029	0	32556	
4030	0	32628	
4031	0	32774	
4032	0	32812	
4033	0	32836	
4034	0	32709	
4035	0	32756	
4036	0	32676	
4037	0	32668	
4038	0	32678	
4039	0	32621	
4040	0	32704	
4041	0	32708	
4042	0	32672	
4043	0	32740	
4044	0	32793	
4045	0	32813	
4046	0	32960	
4047	0	33000	
4048	0	32948	
4049	0	32740	
4050	0	32676	
4051	0	32782	
4052	0	32860	
4053	0	32888	
4054	0	32836	
4055	0	32742	
4056	0	32696	
4057	0	32672	
4058	0	32452	
4059	0	32492	
4060	0	32672	
4061	0	32669	
4062	0	32620	
4063	0	32788	
4064	0	32800	
4065	0	32728	
4066	0	32968	
4067	0	32998	
4068	0	33040	
4069	0	33048	
4070	0	32912	
4071	0	33176	
4072	0	33152	
4073	0	32845	
4074	0	32613	
4075	0	32724	
4076	0	32952	
4077	0	33124	
4078	0	32896	
4079	0	32724	
4080	0	32820	
4081	0	32887	
4082	0	32992	
4083	0	32790	
4084	0	32844	
4085	0	32628	
4086	0	32492	
4087	0	32432	
4088	0	32212	
4089	0	32112	
4090	0	32172	
4091	0	32378	
4092	0	32660	
4093	0	32928	
4094	0	32764	
4095	0	32748	
4096	0	32884	
4097	0	32992	
4098	0	33136	
4099	0	33188	
4100	0	33308	
4101	0	33392	
4102	0	33288	
4103	0	32852	
4104	0	32714	
4105	0	32700	
4106	0	32648	
4107	0	32618	
4108	0	32664	
4109	0	32628	
4110	0	32692	
4111	0	32584	
4112	0	32752	
4113	0	32957	
4114	0	32816	
4115	0	32530	
4116	0	32484	
4117	0	32540	
4118	0	32316	
4119	0	32328	
4120	0	32408	
4121	0	32524	
4122	0	32548	
4123	0	32680	
4124	0	32900	
4125	0	32972	
4126	0	32984	
4127	0	32980	
4128	0	33172	
4129	0	33460	
4130	0	33576	
4131	0	33240	
4132	0	33116	
4133	0	33164	
4134	0	33144	
4135	0	32952	
4136	0	32572	
4137	0	32372	
4138	0	32344	
4139	0	32444	
4140	0	32734	
4141	0	32640	
4142	0	32620	
4143	0	32436	
4144	0	32320	
4145	0	32444	
4146	0	32492	
4147	0	32684	
4148	0	32900	
4149	0	32908	
4150	0	32728	
4151	0	32828	
4152	0	32664	
4153	0	32876	
4154	0	33108	
4155	0	33072	
4156	0	33149	
4157	0	33132	
4158	0	32704	
4159	0	32420	
4160	0	32524	
4161	0	32648	
4162	0	32656	
4163	0	32832	
4164	0	33072	
4165	0	33028	
4166	0	33164	
4167	0	33008	
4168	0	32912	
4169	0	32932	
4170	0	32848	
4171	0	32864	
4172	0	32669	
4173	0	32428	
4174	0	32212	
4175	0	32384	
4176	0	32500	
4177	0	32680	
4178	0	32644	
4179	0	32664	
4180	0	32724	
4181	0	32856	
4182	0	33056	
4183	0	33012	
4184	0	33128	
4185	0	33196	
4186	0	33092	
4187	0	32836	
4188	0	32792	
4189	0	32909	
4190	0	32832	
4191	0	32628	
4192	0	32440	
4193	0	32340	
4194	0	32232	
4195	0	32348	
4196	0	32748	
4197	0	32944	
4198	0	32944	
4199	0	32964	
4200	0	33056	
4201	0	33046	
4202	0	33160	
4203	0	33056	
4204	0	32996	
4205	0	33054	
4206	0	32952	
4207	0	32796	
4208	0	32724	
4209	0	32632	
4210	0	32532	
4211	0	32480	
4212	0	32456	
4213	0	32528	
4214	0	32656	
4215	0	32716	
4216	0	32820	
4217	0	32888	
4218	0	32680	
4219	0	32600	
4220	0	32560	
4221	0	32664	
4222	0	32684	
4223	0	32748	
4224	0	32656	
4225	0	32744	
4226	0	33096	
4227	0	33092	
4228	0	33076	
4229	0	33116	
4230	0	33012	
4231	0	32856	
4232	0	32964	
4233	0	32884	
4234	0	32700	
4235	0	32760	
4236	0	32776	
4237	0	32704	
4238	0	32732	
4239	0	32724	
4240	0	32888	
4241	0	33012	
4242	0	32820	
4243	0	32588	
4244	0	32648	
4245	0	32700	
4246	0	32592	
4247	0	32398	
4248	0	32368	
4249	0	32556	
4250	0	32660	
4251	0	32692	
4252	0	32916	
4253	0	32924	
4254	0	33084	
4255	0	33264	
4256	0	33160	
4257	0	33076	
4258	0	32940	
4259	0	33072	
4260	0	32968	
4261	0	32852	
4262	0	32700	
4263	0	32508	
4264	0	32364	
4265	0	32424	
4266	0	32564	
4267	0	32572	
4268	0	32736	
4269	0	32692	
4270	0	32660	
4271	0	32684	
4272	0	32896	
4273	0	32908	
4274	0	32800	
4275	0	32924	
4276	0	32984	
4277	0	33072	
4278	0	32860	
4279	0	32704	
4280	0	32700	
4281	0	32700	
4282	0	32712	
4283	0	32740	
4284	0	32725	
4285	0	32942	
4286	0	33078	
4287	0	33092	
4288	0	33032	
4289	0	32884	
4290	0	32708	
4291	0	32540	
4292	0	32604	
4293	0	32668	
4294	0	32572	
4295	0	32520	
4296	0	32440	
4297	0	32588	
4298	0	32724	
4299	0	32656	
4300	0	32512	
4301	0	32590	
4302	0	32548	
4303	0	32764	
4304	0	32953	
4305	0	33108	
4306	0	33232	
4307	0	33113	
4308	0	33148	
4309	0	33420	
4310	0	33400	
4311	0	33020	
4312	0	32676	
4313	0	32752	
4314	0	32844	
4315	0	32909	
4316	0	32772	
4317	0	32677	
4318	0	32713	
4319	0	32592	
4320	0	32348	
4321	0	32460	
4322	0	32568	
4323	0	32629	
4324	0	32696	
4325	0	32584	
4326	0	32480	
4327	0	32576	
4328	0	32672	
4329	0	32954	
4330	0	32984	
4331	0	32940	
4332	0	32792	
4333	0	32648	
4334	0	32624	
4335	0	32612	
4336	0	32868	
4337	0	33128	
4338	0	32992	
4339	0	32872	
4340	0	32780	
4341	0	32921	
4342	0	32988	
4343	0	32908	
4344	0	32933	
4345	0	32940	
4346	0	32832	
4347	0	32796	
4348	0	32676	
4349	0	32704	
4350	0	32558	
4351	0	32592	
4352	0	32568	
4353	0	32844	
4354	0	32764	
4355	0	32564	
4356	0	32580	
4357	0	32748	
4358	0	32808	
4359	0	32904	
4360	0	32928	
4361	0	33000	
4362	0	33055	
4363	0	32932	
4364	0	32696	
4365	0	32612	
4366	0	32664	
4367	0	32740	
4368	0	32868	
4369	0	32890	
4370	0	32764	
4371	0	32580	
4372	0	32442	
4373	0	32372	
4374	0	32264	
4375	0	32381	
4376	0	32572	
4377	0	32772	
4378	0	33036	
4379	0	33084	
4380	0	33120	
4381	0	33240	
4382	0	33292	
4383	0	33088	
4384	0	33188	
4385	0	33165	
4386	0	33024	
4387	0	32852	
4388	0	32672	
4389	0	32559	
4390	0	32512	
4391	0	32520	
4392	0	32556	
4393	0	32633	
4394	0	32596	
4395	0	32344	
4396	0	32400	
4397	0	32348	
4398	0	32356	
4399	0	32492	
4400	0	32804	
4401	0	32716	
4402	0	32928	
4403	0	32928	
4404	0	33092	
4405	0	33232	
4406	0	33488	
4407	0	33804	
4408	0	33812	
4409	0	33376	
4410	0	33216	
4411	0	33064	
4412	0	32614	
4413	0	32260	
4414	0	32172	
4415	0	32268	
4416	0	32360	
4417	0	32356	
4418	0	32376	
4419	0	32638	
4420	0	32576	
4421	0	32540	
4422	0	32416	
4423	0	32646	
4424	0	32764	
4425	0	32792	
4426	0	32740	
4427	0	32820	
4428	0	32724	
4429	0	32684	
4430	0	32688	
4431	0	32740	
4432	0	32924	
4433	0	32936	
4434	0	32900	
4435	0	32960	
4436	0	32960	
4437	0	32996	
4438	0	32844	
4439	0	32872	
4440	0	32753	
4441	0	32624	
4442	0	32722	
4443	0	32708	
4444	0	32505	
4445	0	32492	
4446	0	32724	
4447	0	33038	
4448	0	33141	
4449	0	33180	
4450	0	33224	
4451	0	33232	
4452	0	32980	
4453	0	32968	
4454	0	33228	
4455	0	33224	
4456	0	32736	
4457	0	32332	
4458	0	32344	
4459	0	32302	
4460	0	32224	
4461	0	32372	
4462	0	32432	
4463	0	32545	
4464	0	32624	
4465	0	32620	
4466	0	32540	
4467	0	32544	
4468	0	32510	
4469	0	32536	
4470	0	32744	
4471	0	32844	
4472	0	32788	
4473	0	33100	
4474	0	33236	
4475	0	33192	
4476	0	33260	
4477	0	32966	
4478	0	32734	
4479	0	32860	
4480	0	33324	
4481	0	33260	
4482	0	33124	
4483	0	33040	
4484	0	32736	
4485	0	32524	
4486	0	32637	
4487	0	32668	
4488	0	32700	
4489	0	32808	
4490	0	32548	
4491	0	32620	
4492	0	32596	
4493	0	32536	
4494	0	32664	
4495	0	32684	
4496	0	32736	
4497	0	32880	
4498	0	32800	
4499	0	32740	
4500	0	32988	
4501	0	33020	
4502	0	32968	
4503	0	32736	
4504	0	32900	
4505	0	32944	
4506	0	32924	
4507	0	32837	
4508	0	32853	
4509	0	32617	
4510	0	32436	
4511	0	32428	
4512	0	32308	
4513	0	32356	
4514	0	32440	
4515	0	32424	
4516	0	32660	
4517	0	32780	
4518	0	32844	
4519	0	32780	
4520	0	32868	
4521	0	32944	
4522	0	32996	
4523	0	32948	
4524	0	33144	
4525	0	33148	
4526	0	33056	
4527	0	33064	
4528	0	33024	
4529	0	32840	
4530	0	32957	
4531	0	33184	
4532	0	33044	
4533	0	32588	
4534	0	32296	
4535	0	32360	
4536	0	32285	
4537	0	32228	
4538	0	32320	
4539	0	32368	
4540	0	32644	
4541	0	32656	
4542	0	32808	
4543	0	32976	
4544	0	33048	
4545	0	33000	
4546	0	33056	
4547	0	32990	
4548	0	32992	
4549	0	33110	
4550	0	33148	
4551	0	32644	
4552	0	32464	
4553	0	32492	
4554	0	32716	
4555	0	32984	
4556	0	32832	
4557	0	32864	
4558	0	33056	
4559	0	33076	
4560	0	32908	
4561	0	32676	
4562	0	32676	
4563	0	32592	
4564	0	32496	
4565	0	32548	
4566	0	32620	
4567	0	32848	
4568	0	32860	
4569	0	32752	
4570	0	32812	
4571	0	32756	
4572	0	32826	
4573	0	32836	
4574	0	32916	
4575	0	33096	
4576	0	32940	
4577	0	32732	
4578	0	32560	
4579	0	32716	
4580	0	32820	
4581	0	32896	
4582	0	32857	
4583	0	32744	
4584	0	32486	
4585	0	32272	
4586	0	32412	
4587	0	32625	
4588	0	32608	
4589	0	32640	
4590	0	32789	
4591	0	32780	
4592	0	32780	
4593	0	32784	
4594	0	32832	
4595	0	32636	
4596	0	32740	
4597	0	32940	
4598	0	33169	
4599	0	33329	
4600	0	33100	
4601	0	32918	
4602	0	32788	
4603	0	32660	
4604	0	32676	
4605	0	32640	
4606	0	32640	
4607	0	32816	
4608	0	32888	
4609	0	32692	
4610	0	32585	
4611	0	32621	
4612	0	32740	
4613	0	33084	
4614	0	32960	
4615	0	32756	
4616	0	32777	
4617	0	32832	
4618	0	32588	
4619	0	32516	
4620	0	32500	
4621	0	32464	
4622	0	32612	
4623	0	32652	
4624	0	33120	
4625	0	33284	
4626	0	33188	
4627	0	33004	
4628	0	32968	
4629	0	33156	
4630	0	33028	
4631	0	32840	
4632	0	32664	
4633	0	32724	
4634	0	32652	
4635	0	32548	
4636	0	32764	
4637	0	32933	
4638	0	33028	
4639	0	32960	
4640	0	32868	
4641	0	32788	
4642	0	32716	
4643	0	32484	
4644	0	32488	
4645	0	32509	
4646	0	32512	
4647	0	32517	
4648	0	32480	
4649	0	32329	
4650	0	32308	
4651	0	32548	
4652	0	32864	
4653	0	32972	
4654	0	32996	
4655	0	32952	
4656	0	33100	
4657	0	33264	
4658	0	33248	
4659	0	33332	
4660	0	33308	
4661	0	33124	
4662	0	32872	
4663	0	32532	
4664	0	32428	
4665	0	32348	
4666	0	32337	
4667	0	32644	
4668	0	32892	
4669	0	32844	
4670	0	32872	
4671	0	32796	
4672	0	32660	
4673	0	32646	
4674	0	32624	
4675	0	32800	
4676	0	32921	
4677	0	32836	
4678	0	32788	
4679	0	32720	
4680	0	32736	
4681	0	32796	
4682	0	32768	
4683	0	32572	
4684	0	32576	
4685	0	32628	
4686	0	32628	
4687	0	32516	
4688	0	32340	
4689	0	32300	
4690	0	32432	
4691	0	32708	
4692	0	32896	
4693	0	33008	
4694	0	33124	
4695	0	33204	
4696	0	33500	
4697	0	33604	
4698	0	33304	
4699	0	33056	
4700	0	32692	
4701	0	32684	
4702	0	32800	
4703	0	32676	
4704	0	32544	
4705	0	32580	
4706	0	32576	
4707	0	32558	
4708	0	32436	
4709	0	32694	
4710	0	32740	
4711	0	32728	
4712	0	32740	
4713	0	32672	
4714	0	32860	
4715	0	32820	
4716	0	33008	
4717	0	33272	
4718	0	33132	
4719	0	32688	
4720	0	32564	
4721	0	32820	
4722	0	32632	
4723	0	32628	
4724	0	32653	
4725	0	32548	
4726	0	32468	
4727	0	32448	
4728	0	32668	
4729	0	32844	
4730	0	32852	
4731	0	32788	
4732	0	32748	
4733	0	32900	
4734	0	33236	
4735	0	33416	
4736	0	33076	
4737	0	32704	
4738	0	32612	
4739	0	32772	
4740	0	32648	
4741	0	32313	
4742	0	32320	
4743	0	32588	
4744	0	33168	
4745	0	33108	
4746	0	33000	
4747	0	33160	
4748	0	33240	
4749	0	32977	
4750	0	32852	
4751	0	32849	
4752	0	32760	
4753	0	32676	
4754	0	32620	
4755	0	32316	
4756	0	32380	
4757	0	32420	
4758	0	32452	
4759	0	32528	
4760	0	32686	
4761	0	32712	
4762	0	32944	
4763	0	33182	
4764	0	32900	
4765	0	32837	
4766	0	32812	
4767	0	32842	
4768	0	32676	
4769	0	32724	
4770	0	32692	
4771	0	32800	
4772	0	32844	
4773	0	32680	
4774	0	32628	
4775	0	32728	
4776	0	32936	
4777	0	32996	
4778	0	33148	
4779	0	33224	
4780	0	33253	
4781	0	32936	
4782	0	32696	
4783	0	32632	
4784	0	32540	
4785	0	32616	
4786	0	32500	
4787	0	32576	
4788	0	32452	
4789	0	32496	
4790	0	32620	
4791	0	32704	
4792	0	32656	
4793	0	32644	
4794	0	32824	
4795	0	32796	
4796	0	32720	
4797	0	32717	
4798	0	32732	
4799	0	32824	
4800	0	33008	
4801	0	33000	
4802	0	32833	
4803	0	32780	
4804	0	32848	
4805	0	32880	
4806	0	32868	
4807	0	32816	
4808	0	33016	
4809	0	33365	
4810	0	33065	
4811	0	32752	
4812	0	32616	
4813	0	32592	
4814	0	32588	
4815	0	32608	
4816	0	32857	
4817	0	32696	
4818	0	32777	
4819	0	32988	
4820	0	32928	
4821	0	32668	
4822	0	32637	
4823	0	32644	
4824	0	32924	
4825	0	32996	
4826	0	32700	
4827	0	32486	
4828	0	32784	
4829	0	32888	
4830	0	32593	
4831	0	32605	
4832	0	32736	
4833	0	32652	
4834	0	32484	
4835	0	32500	
4836	0	32700	
4837	0	32621	
4838	0	32548	
4839	0	32708	
4840	0	32832	
4841	0	32884	
4842	0	33096	
4843	0	33072	
4844	0	33320	
4845	0	33360	
4846	0	33088	
4847	0	33072	
4848	0	33084	
4849	0	32796	
4850	0	32556	
4851	0	32580	
4852	0	32604	
4853	0	32572	
4854	0	32550	
4855	0	32572	
4856	0	32664	
4857	0	32708	
4858	0	32796	
4859	0	32884	
4860	0	32868	
4861	0	32948	
4862	0	32812	
4863	0	32704	
4864	0	32692	
4865	0	32676	
4866	0	32630	
4867	0	32632	
4868	0	32596	
4869	0	32532	
4870	0	32519	
4871	0	32628	
4872	0	32904	
4873	0	32988	
4874	0	32952	
4875	0	32960	
4876	0	32949	
4877	0	32964	
4878	0	32868	
4879	0	32928	
4880	0	32892	
4881	0	32720	
4882	0	32621	
4883	0	32504	
4884	0	32600	
4885	0	32964	
4886	0	33048	
4887	0	33192	
4888	0	33028	
4889	0	32740	
4890	0	32656	
4891	0	32685	
4892	0	32661	
4893	0	32620	
4894	0	32660	
4895	0	32792	
4896	0	32860	
4897	0	32648	
4898	0	32621	
4899	0	32714	
4900	0	32772	
4901	0	32764	
4902	0	32672	
4903	0	32568	
4904	0	32621	
4905	0	32637	
4906	0	32654	
4907	0	32708	
4908	0	32910	
4909	0	33016	
4910	0	33056	
4911	0	32984	
4912	0	32868	
4913	0	32884	
4914	0	32702	
4915	0	32840	
4916	0	33045	
4917	0	32876	
4918	0	32557	
4919	0	32500	
4920	0	32696	
4921	0	32800	
4922	0	32748	
4923	0	32796	
4924	0	32989	
4925	0	33088	
4926	0	33097	
4927	0	32934	
4928	0	33012	
4929	0	32836	
4930	0	32660	
4931	0	32540	
4932	0	32474	
4933	0	32536	
4934	0	32592	
4935	0	32708	
4936	0	32632	
4937	0	32636	
4938	0	32552	
4939	0	32740	
4940	0	32868	
4941	0	33033	
4942	0	33004	
4943	0	32869	
4944	0	32949	
4945	0	33108	
4946	0	33056	
4947	0	32836	
4948	0	32756	
4949	0	32592	
4950	0	32636	
4951	0	32648	
4952	0	32652	
4953	0	32328	
4954	0	32324	
4955	0	32436	
4956	0	32364	
4957	0	32448	
4958	0	32448	
4959	0	32692	
4960	0	33060	
4961	0	33280	
4962	0	33172	
4963	0	33212	
4964	0	33020	
4965	0	33040	
4966	0	33444	
4967	0	33444	
4968	0	32996	
4969	0	32976	
4970	0	32964	
4971	0	32720	
4972	0	32360	
4973	0	32108	
4974	0	32068	
4975	0	32148	
4976	0	32436	
4977	0	32516	
4978	0	32668	
4979	0	32768	
4980	0	32943	
4981	0	33136	
4982	0	33136	
4983	0	33196	
4984	0	33004	
4985	0	32945	
4986	0	33248	
4987	0	33172	
4988	0	32752	
4989	0	32360	
4990	0	32228	
4991	0	32357	
4992	0	32376	
4993	0	32540	
4994	0	32604	
4995	0	32832	
4996	0	33048	
4997	0	33036	
4998	0	33204	
4999	0	33456	
5000	0	33353	
5001	0	32888	
5002	0	32780	
5003	0	32616	
5004	0	32449	
5005	0	32468	
5006	0	32453	
5007	0	32633	
5008	0	32668	
5009	0	32644	
5010	0	32792	
5011	0	33017	
5012	0	32916	
5013	0	32764	
5014	0	32900	
5015	0	33060	
5016	0	32900	
5017	0	32644	
5018	0	32604	
5019	0	32552	
5020	0	32520	
5021	0	32672	
5022	0	32729	
5023	0	32744	
5024	0	32896	
5025	0	32960	
5026	0	32812	
5027	0	32996	
5028	0	33060	
5029	0	32996	
5030	0	32804	
5031	0	32704	
5032	0	32592	
5033	0	32456	
5034	0	32492	
5035	0	32476	
5036	0	32510	
5037	0	32361	
5038	0	32500	
5039	0	32708	
5040	0	32960	
5041	0	32900	
5042	0	32944	
5043	0	33084	
5044	0	33045	
5045	0	33004	
5046	0	33128	
5047	0	33216	
5048	0	33121	
5049	0	32952	
5050	0	32820	
5051	0	32688	
5052	0	32800	
5053	0	32792	
5054	0	32797	
5055	0	32856	
5056	0	32613	
5057	0	32452	
5058	0	32562	
5059	0	32636	
5060	0	32772	
5061	0	32812	
5062	0	32916	
5063	0	32820	
5064	0	32728	
5065	0	32672	
5066	0	32676	
5067	0	32568	
5068	0	32428	
5069	0	32432	
5070	0	32584	
5071	0	32752	
5072	0	32896	
5073	0	32990	
5074	0	33036	
5075	0	32817	
5076	0	32868	
5077	0	33336	
5078	0	33380	
5079	0	33412	
5080	0	33188	
5081	0	32880	
5082	0	32708	
5083	0	32649	
5084	0	32216	
5085	0	32168	
5086	0	32444	
5087	0	32324	
5088	0	32416	
5089	0	32576	
5090	0	32612	
5091	0	32772	
5092	0	32933	
5093	0	32996	
5094	0	33186	
5095	0	33192	
5096	0	33088	
5097	0	33096	
5098	0	33153	
5099	0	33044	
5100	0	32884	
5101	0	32824	
5102	0	32709	
5103	0	32452	
5104	0	32584	
5105	0	32504	
5106	0	32496	
5107	0	32436	
5108	0	32396	
5109	0	32436	
5110	0	32577	
5111	0	32720	
5112	0	32732	
5113	0	32628	
5114	0	32484	
5115	0	32540	
5116	0	32768	
5117	0	32607	
5118	0	32620	
5119	0	32913	
5120	0	32924	
5121	0	32996	
5122	0	33220	
5123	0	33312	
5124	0	33220	
5125	0	33140	
5126	0	32872	
5127	0	32664	
5128	0	32944	
5129	0	33396	
5130	0	33317	
5131	0	33116	
5132	0	32993	
5133	0	32644	
5134	0	32364	
5135	0	32412	
5136	0	32572	
5137	0	32526	
5138	0	32488	
5139	0	32524	
5140	0	32480	
5141	0	32376	
5142	0	32580	
5143	0	32668	
5144	0	32688	
5145	0	32748	
5146	0	32900	
5147	0	32684	
5148	0	32486	
5149	0	32372	
5150	0	32444	
5151	0	32544	
5152	0	32856	
5153	0	32996	
5154	0	33344	
5155	0	33276	
5156	0	32908	
5157	0	32854	
5158	0	32816	
5159	0	33080	
5160	0	33352	
5161	0	33238	
5162	0	33104	
5163	0	33056	
5164	0	32704	
5165	0	32576	
5166	0	32652	
5167	0	32704	
5168	0	32912	
5169	0	32868	
5170	0	32533	
5171	0	32560	
5172	0	32480	
5173	0	32464	
5174	0	32654	
5175	0	32796	
5176	0	32924	
5177	0	32904	
5178	0	32904	
5179	0	32884	
5180	0	32944	
5181	0	32992	
5182	0	32936	
5183	0	32800	
5184	0	32506	
5185	0	32512	
5186	0	32476	
5187	0	32544	
5188	0	32636	
5189	0	32545	
5190	0	32548	
5191	0	32672	
5192	0	32702	
5193	0	32916	
5194	0	33184	
5195	0	33392	
5196	0	33252	
5197	0	33141	
5198	0	32988	
5199	0	32952	
5200	0	32628	
5201	0	32532	
5202	0	32392	
5203	0	32460	
5204	0	32560	
5205	0	32664	
5206	0	32756	
5207	0	32772	
5208	0	32772	
5209	0	32800	
5210	0	32772	
5211	0	33069	
5212	0	33028	
5213	0	32936	
5214	0	32996	
5215	0	32718	
5216	0	32560	
5217	0	32562	
5218	0	32629	
5219	0	32572	
5220	0	32560	
5221	0	32536	
5222	0	32528	
5223	0	32560	
5224	0	32660	
5225	0	32600	
5226	0	32756	
5227	0	32868	
5228	0	32961	
5229	0	32816	
5230	0	32592	
5231	0	32624	
5232	0	32824	
5233	0	33008	
5234	0	33160	
5235	0	33414	
5236	0	33088	
5237	0	32886	
5238	0	32436	
5239	0	32204	
5240	0	32620	
5241	0	32964	
5242	0	33100	
5243	0	33268	
5244	0	33324	
5245	0	33144	
5246	0	32900	
5247	0	32784	
5248	0	32888	
5249	0	33118	
5250	0	33080	
5251	0	32888	
5252	0	32832	
5253	0	32736	
5254	0	32604	
5255	0	32468	
5256	0	32548	
5257	0	32448	
5258	0	32321	
5259	0	32408	
5260	0	32348	
5261	0	32380	
5262	0	32140	
5263	0	31948	
5264	0	31900	
5265	0	31868	
5266	0	32234	
5267	0	32192	
5268	0	32260	
5269	0	32428	
5270	0	32860	
5271	0	33276	
5272	0	33492	
5273	0	33712	
5274	0	34336	
5275	0	34868	
5276	0	34508	
5277	0	34144	
5278	0	33332	
5279	0	32872	
5280	0	32828	
5281	0	33060	
5282	0	33200	
5283	0	32685	
5284	0	32108	
5285	0	31766	
5286	0	32064	
5287	0	32312	
5288	0	32620	
5289	0	32669	
5290	0	32596	
5291	0	32904	
5292	0	32852	
5293	0	32548	
5294	0	32128	
5295	0	32366	
5296	0	33116	
5297	0	33260	
5298	0	33064	
5299	0	32492	
5300	0	31873	
5301	0	31816	
5302	0	31868	
5303	0	31780	
5304	0	31812	
5305	0	32096	
5306	0	32348	
5307	0	32708	
5308	0	32948	
5309	0	33204	
5310	0	33056	
5311	0	33144	
5312	0	32708	
5313	0	32204	
5314	0	31038	
5315	0	31124	
5316	0	32616	
5317	0	34010	
5318	0	34017	
5319	0	32192	
5320	0	31054	
5321	0	31912	
5322	0	34360	
5323	0	35356	
5324	0	34905	
5325	0	34592	
5326	0	34100	
5327	0	33722	
5328	0	33812	
5329	0	33780	
5330	0	32856	
5331	0	31968	
5332	0	32034	
5333	0	32520	
5334	0	32128	
5335	0	32216	
5336	0	32186	
5337	0	32340	
5338	0	31668	
5339	0	32676	
5340	0	33484	
5341	0	33588	
5342	0	34484	
5343	0	34644	
5344	0	33604	
5345	0	32572	
5346	0	33120	
5347	0	34024	
5348	0	34320	
5349	0	34312	
5350	0	34120	
5351	0	34788	
5352	0	34536	
5353	0	33592	
5354	0	31212	
5355	0	29167	
5356	0	29134	
5357	0	30168	
5358	0	30368	
5359	0	31696	
5360	0	32680	
5361	0	32188	
5362	0	31325	
5363	0	31556	
5364	0	32444	
5365	0	32388	
5366	0	33008	
5367	0	32481	
5368	0	32572	
5369	0	31984	
5370	0	31632	
5371	0	32720	
5372	0	33704	
5373	0	34585	
5374	0	35564	
5375	0	35876	
5376	0	35468	
5377	0	34212	
5378	0	32616	
5379	0	31092	
5380	0	30244	
5381	0	29705	
5382	0	30044	
5383	0	31832	
5384	0	33821	
5385	0	33388	
5386	0	33696	
5387	0	34748	
5388	0	33820	
5389	0	31892	
5390	0	29872	
5391	0	29569	
5392	0	30293	
5393	0	32704	
5394	0	35888	
5395	0	36356	
5396	0	35100	
5397	0	35720	
5398	0	36872	
5399	0	36804	
5400	0	35716	
5401	0	34184	
5402	0	33828	
5403	0	32917	
5404	0	30636	
5405	0	29316	
5406	0	30052	
5407	0	31316	
5408	0	29948	
5409	0	27476	
5410	0	27776	
5411	0	28760	
5412	0	29376	
5413	0	29584	
5414	0	31020	
5415	0	31789	
5416	0	31760	
5417	0	33025	
5418	0	34896	
5419	0	34908	
5420	0	35532	
5421	0	36192	
5422	0	37292	
5423	0	37636	
5424	0	35700	
5425	0	31948	
5426	0	31948	
5427	0	33512	
5428	0	33408	
5429	0	33488	
5430	0	33476	
5431	0	34204	
5432	0	34896	
5433	0	35936	
5434	0	36156	
5435	0	34916	
5436	0	33080	
5437	0	31524	
5438	0	30952	
5439	0	29920	
5440	0	30984	
5441	0	31616	
5442	0	31069	
5443	0	29740	
5444	0	30461	
5445	0	31284	
5446	0	31156	
5447	0	31336	
5448	0	32660	
5449	0	32552	
5450	0	33832	
5451	0	33884	
5452	0	32688	
5453	0	32748	
5454	0	32740	
5455	0	32320	
5456	0	32736	
5457	0	32812	
5458	0	31988	
5459	0	32576	
5460	0	34176	
5461	0	35060	
5462	0	33910	
5463	0	33368	
5464	0	34328	
5465	0	34696	
5466	0	34212	
5467	0	33300	
5468	0	32596	
5469	0	33412	
5470	0	33886	
5471	0	33544	
5472	0	33276	
5473	0	32772	
5474	0	31748	
5475	0	30696	
5476	0	29697	
5477	0	29444	
5478	0	30260	
5479	0	31236	
5480	0	32344	
5481	0	32953	
5482	0	33104	
5483	0	32824	
5484	0	32700	
5485	0	33028	
5486	0	33304	
5487	0	33588	
5488	0	33388	
5489	0	32760	
5490	0	32740	
5491	0	32780	
5492	0	32668	
5493	0	32524	
5494	0	31534	
5495	0	31724	
5496	0	32064	
5497	0	32376	
5498	0	32996	
5499	0	33872	
5500	0	34360	
5501	0	33024	
5502	0	32692	
5503	0	32953	
5504	0	33816	
5505	0	33608	
5506	0	33312	
5507	0	33620	
5508	0	34624	
5509	0	33692	
5510	0	33308	
5511	0	32036	
5512	0	31494	
5513	0	31692	
5514	0	30760	
5515	0	29776	
5516	0	29844	
5517	0	31356	
5518	0	32520	
5519	0	34488	
5520	0	34952	
5521	0	35144	
5522	0	36176	
5523	0	35344	
5524	0	34461	
5525	0	34128	
5526	0	33196	
5527	0	32596	
5528	0	32996	
5529	0	33044	
5530	0	32392	
5531	0	31228	
5532	0	30964	
5533	0	31924	
5534	0	32484	
5535	0	32808	
5536	0	32918	
5537	0	32432	
5538	0	31640	
5539	0	31456	
5540	0	33260	
5541	0	33776	
5542	0	33624	
5543	0	32704	
5544	0	31405	
5545	0	31396	
5546	0	32132	
5547	0	32816	
5548	0	33180	
5549	0	33732	
5550	0	33636	
5551	0	33729	
5552	0	33232	
5553	0	32100	
5554	0	31268	
5555	0	31900	
5556	0	32920	
5557	0	32900	
5558	0	32840	
5559	0	32588	
5560	0	33132	
5561	0	34012	
5562	0	33760	
5563	0	33412	
5564	0	32386	
5565	0	31556	
5566	0	31588	
5567	0	32032	
5568	0	32732	
5569	0	33048	
5570	0	33404	
5571	0	34728	
5572	0	34732	
5573	0	32276	
5574	0	30724	
5575	0	30788	
5576	0	31136	
5577	0	31317	
5578	0	31848	
5579	0	32564	
5580	0	33956	
5581	0	36073	
5582	0	34596	
5583	0	32432	
5584	0	31648	
5585	0	32364	
5586	0	33208	
5587	0	33496	
5588	0	32900	
5589	0	32412	
5590	0	32872	
5591	0	33040	
5592	0	34088	
5593	0	33785	
5594	0	33116	
5595	0	32720	
5596	0	32196	
5597	0	31744	
5598	0	32056	
5599	0	31920	
5600	0	31668	
5601	0	31612	
5602	0	31464	
5603	0	31940	
5604	0	32193	
5605	0	32864	
5606	0	33764	
5607	0	33996	
5608	0	33966	
5609	0	33656	
5610	0	33428	
5611	0	33552	
5612	0	32468	
5613	0	31656	
5614	0	31724	
5615	0	31928	
5616	0	32488	
5617	0	32560	
5618	0	32292	
5619	0	32856	
5620	0	33668	
5621	0	34116	
5622	0	34588	
5623	0	35677	
5624	0	35176	
5625	0	35032	
5626	0	34668	
5627	0	33968	
5628	0	32452	
5629	0	30916	
5630	0	31280	
5631	0	31272	
5632	0	31412	
5633	0	31556	
5634	0	31792	
5635	0	31876	
5636	0	32498	
5637	0	33150	
5638	0	32500	
5639	0	32024	
5640	0	32088	
5641	0	32184	
5642	0	32588	
5643	0	33165	
5644	0	32472	
5645	0	32470	
5646	0	33053	
5647	0	32884	
5648	0	32536	
5649	0	32524	
5650	0	33632	
5651	0	33864	
5652	0	33872	
5653	0	32568	
5654	0	33228	
5655	0	32852	
5656	0	31492	
5657	0	31180	
5658	0	31349	
5659	0	31768	
5660	0	31784	
5661	0	32124	
5662	0	31932	
5663	0	31404	
5664	0	31572	
5665	0	32260	
5666	0	32440	
5667	0	33420	
5668	0	34636	
5669	0	35438	
5670	0	36580	
5671	0	35280	
5672	0	33372	
5673	0	32792	
5674	0	32404	
5675	0	31932	
5676	0	32161	
5677	0	32524	
5678	0	32601	
5679	0	33380	
5680	0	33336	
5681	0	33120	
5682	0	33192	
5683	0	33556	
5684	0	33884	
5685	0	33224	
5686	0	32756	
5687	0	32724	
5688	0	32788	
5689	0	32600	
5690	0	32236	
5691	0	32481	
5692	0	32592	
5693	0	32224	
5694	0	32276	
5695	0	32736	
5696	0	32184	
5697	0	31972	
5698	0	31512	
5699	0	31620	
5700	0	32524	
5701	0	32388	
5702	0	32828	
5703	0	33268	
5704	0	33084	
5705	0	33320	
5706	0	33232	
5707	0	32748	
5708	0	32296	
5709	0	32812	
5710	0	32924	
5711	0	32996	
5712	0	32918	
5713	0	32044	
5714	0	32140	
5715	0	31968	
5716	0	32172	
5717	0	31776	
5718	0	31944	
5719	0	32676	
5720	0	34384	
5721	0	35188	
5722	0	34972	
5723	0	33920	
5724	0	33304	
5725	0	33868	
5726	0	33976	
5727	0	33756	
5728	0	33880	
5729	0	33236	
5730	0	32349	
5731	0	31740	
5732	0	31272	
5733	0	31646	
5734	0	32270	
5735	0	32276	
5736	0	32148	
5737	0	32164	
5738	0	32560	
5739	0	32948	
5740	0	33084	
5741	0	32900	
5742	0	32796	
5743	0	33008	
5744	0	32951	
5745	0	32464	
5746	0	32360	
5747	0	32516	
5748	0	32440	
5749	0	32488	
5750	0	31724	
5751	0	31852	
5752	0	32100	
5753	0	32373	
5754	0	32192	
5755	0	31260	
5756	0	31388	
5757	0	32145	
5758	0	33161	
5759	0	33892	
5760	0	34550	
5761	0	33948	
5762	0	33852	
5763	0	33604	
5764	0	33776	
5765	0	33736	
5766	0	33408	
5767	0	33420	
5768	0	33408	
5769	0	32736	
5770	0	32097	
5771	0	31696	
5772	0	32276	
5773	0	33120	
5774	0	32552	
5775	0	32796	
5776	0	32948	
5777	0	31892	
5778	0	31856	
5779	0	31280	
5780	0	30920	
5781	0	30844	
5782	0	31780	
5783	0	32764	
5784	0	33996	
5785	0	35332	
5786	0	35529	
5787	0	34700	
5788	0	33854	
5789	0	33984	
5790	0	34245	
5791	0	33444	
5792	0	32449	
5793	0	32484	
5794	0	32928	
5795	0	32500	
5796	0	31860	
5797	0	32020	
5798	0	32384	
5799	0	32736	
5800	0	32288	
5801	0	32556	
5802	0	32492	
5803	0	32306	
5804	0	32396	
5805	0	32205	
5806	0	31996	
5807	0	32077	
5808	0	32172	
5809	0	32588	
5810	0	33560	
5811	0	33836	
5812	0	33222	
5813	0	33008	
5814	0	33216	
5815	0	32694	
5816	0	32180	
5817	0	32056	
5818	0	32324	
5819	0	33012	
5820	0	33156	
5821	0	32716	
5822	0	32656	
5823	0	33040	
5824	0	32888	
5825	0	32624	
5826	0	32350	
5827	0	32220	
5828	0	32248	
5829	0	32549	
5830	0	32977	
5831	0	33060	
5832	0	32613	
5833	0	32656	
5834	0	32832	
5835	0	33037	
5836	0	32988	
5837	0	32766	
5838	0	32400	
5839	0	32284	
5840	0	33052	
5841	0	32260	
5842	0	31748	
5843	0	31776	
5844	0	31784	
5845	0	32388	
5846	0	32286	
5847	0	32320	
5848	0	34000	
5849	0	34613	
5850	0	35216	
5851	0	34664	
5852	0	33988	
5853	0	34044	
5854	0	33760	
5855	0	34068	
5856	0	33948	
5857	0	33432	
5858	0	33248	
5859	0	32156	
5860	0	31752	
5861	0	31192	
5862	0	31668	
5863	0	32317	
5864	0	31860	
5865	0	31112	
5866	0	31044	
5867	0	30796	
5868	0	31080	
5869	0	32196	
5870	0	33068	
5871	0	33374	
5872	0	33476	
5873	0	34054	
5874	0	34380	
5875	0	34012	
5876	0	33952	
5877	0	33984	
5878	0	33262	
5879	0	32772	
5880	0	32388	
5881	0	31736	
5882	0	30676	
5883	0	30604	
5884	0	31790	
5885	0	32216	
5886	0	33264	
5887	0	33980	
5888	0	34080	
5889	0	33872	
5890	0	33668	
5891	0	33952	
5892	0	33928	
5893	0	34180	
5894	0	33064	
5895	0	32356	
5896	0	32304	
5897	0	32276	
5898	0	31900	
5899	0	31636	
5900	0	31485	
5901	0	32420	
5902	0	32852	
5903	0	32237	
5904	0	32324	
5905	0	32717	
5906	0	33568	
5907	0	33824	
5908	0	33153	
5909	0	32833	
5910	0	33164	
5911	0	32848	
5912	0	33000	
5913	0	33412	
5914	0	33680	
5915	0	33529	
5916	0	32720	
5917	0	31748	
5918	0	31336	
5919	0	31702	
5920	0	31908	
5921	0	31596	
5922	0	31892	
5923	0	32336	
5924	0	32766	
5925	0	32720	
5926	0	32453	
5927	0	32608	
5928	0	33656	
5929	0	33848	
5930	0	32580	
5931	0	32052	
5932	0	33032	
5933	0	34588	
5934	0	34830	
5935	0	33756	
5936	0	32608	
5937	0	32208	
5938	0	32392	
5939	0	32781	
5940	0	32708	
5941	0	32712	
5942	0	32152	
5943	0	31908	
5944	0	31040	
5945	0	30332	
5946	0	30708	
5947	0	31968	
5948	0	33136	
5949	0	33476	
5950	0	33004	
5951	0	33592	
5952	0	34672	
5953	0	35180	
5954	0	35448	
5955	0	34926	
5956	0	34696	
5957	0	34061	
5958	0	33272	
5959	0	33045	
5960	0	32932	
5961	0	32364	
5962	0	31969	
5963	0	31616	
5964	0	31528	
5965	0	30956	
5966	0	30704	
5967	0	30560	
5968	0	31008	
5969	0	31653	
5970	0	32240	
5971	0	32380	
5972	0	32612	
5973	0	33020	
5974	0	33710	
5975	0	34232	
5976	0	34413	
5977	0	34120	
5978	0	34432	
5979	0	34086	
5980	0	34204	
5981	0	33532	
5982	0	32622	
5983	0	32024	
5984	0	31748	
5985	0	32096	
5986	0	32524	
5987	0	31885	
5988	0	31828	
5989	0	32580	
5990	0	33808	
5991	0	33940	
5992	0	33380	
5993	0	33112	
5994	0	32644	
5995	0	32018	
5996	0	31652	
5997	0	31916	
5998	0	32508	
5999	0	32864	
6000	0	32728	
6001	0	32916	
6002	0	32390	
6003	0	32484	
6004	0	33444	
6005	0	33428	
6006	0	32671	
6007	0	32180	
6008	0	31788	
6009	0	31936	
6010	0	31948	
6011	0	32696	
6012	0	32900	
6013	0	32988	
6014	0	32568	
6015	0	32760	
6016	0	33257	
6017	0	34000	
6018	0	35056	
6019	0	34672	
6020	0	33360	
6021	0	32856	
6022	0	31608	
6023	0	31516	
6024	0	32512	
6025	0	32704	
6026	0	32456	
6027	0	32056	
6028	0	32068	
6029	0	31908	
6030	0	32520	
6031	0	32940	
6032	0	33468	
6033	0	33504	
6034	0	33078	
6035	0	33080	
6036	0	32860	
6037	0	32510	
6038	0	32156	
6039	0	32308	
6040	0	32264	
6041	0	31928	
6042	0	32270	
6043	0	32484	
6044	0	32986	
6045	0	33476	
6046	0	33168	
6047	0	32992	
6048	0	32937	
6049	0	32901	
6050	0	32900	
6051	0	33008	
6052	0	33416	
6053	0	33125	
6054	0	32700	
6055	0	32436	
6056	0	32276	
6057	0	32440	
6058	0	32504	
6059	0	32972	
6060	0	33724	
6061	0	34712	
6062	0	34912	
6063	0	34300	
6064	0	33809	
6065	0	33188	
6066	0	32996	
6067	0	32664	
6068	0	32320	
6069	0	31728	
6070	0	31540	
6071	0	31648	
6072	0	32008	
6073	0	31876	
6074	0	32420	
6075	0	32360	
6076	0	31717	
6077	0	31456	
6078	0	31648	
6079	0	32164	
6080	0	32740	
6081	0	32837	
6082	0	32762	
6083	0	32988	
6084	0	33280	
6085	0	32516	
6086	0	32760	
6087	0	33296	
6088	0	33840	
6089	0	33972	
6090	0	33984	
6091	0	33149	
6092	0	32592	
6093	0	32260	
6094	0	32512	
6095	0	32296	
6096	0	31956	
6097	0	31832	
6098	0	32216	
6099	0	32480	
6100	0	32696	
6101	0	33064	
6102	0	33472	
6103	0	33748	
6104	0	33176	
6105	0	33120	
6106	0	33312	
6107	0	33048	
6108	0	32996	
6109	0	32744	
6110	0	32108	
6111	0	31384	
6112	0	31260	
6113	0	31988	
6114	0	33200	
6115	0	33292	
6116	0	33340	
6117	0	33404	
6118	0	33744	
6119	0	34412	
6120	0	34436	
6121	0	33892	
6122	0	33160	
6123	0	32744	
6124	0	32662	
6125	0	32600	
6126	0	31936	
6127	0	31876	
6128	0	32660	
6129	0	33148	
6130	0	32992	
6131	0	32856	
6132	0	31644	
6133	0	31804	
6134	0	32589	
6135	0	33400	
6136	0	33632	
6137	0	32244	
6138	0	31724	
6139	0	32056	
6140	0	31904	
6141	0	31632	
6142	0	32108	
6143	0	32513	
6144	0	32560	
6145	0	32460	
6146	0	32696	
6147	0	32572	
6148	0	32652	
6149	0	33968	
6150	0	34384	
6151	0	33972	
6152	0	34012	
6153	0	34604	
6154	0	34172	
6155	0	33428	
6156	0	32830	
6157	0	32584	
6158	0	32844	
6159	0	32905	
6160	0	33084	
6161	0	32408	
6162	0	31948	
6163	0	31488	
6164	0	31032	
6165	0	30648	
6166	0	31072	
6167	0	30988	
6168	0	31824	
6169	0	32504	
6170	0	33420	
6171	0	33368	
6172	0	33584	
6173	0	33709	
6174	0	33756	
6175	0	34300	
6176	0	34772	
6177	0	34720	
6178	0	34094	
6179	0	33000	
6180	0	32580	
6181	0	32228	
6182	0	32072	
6183	0	31688	
6184	0	31368	
6185	0	31300	
6186	0	32268	
6187	0	32200	
6188	0	31828	
6189	0	32292	
6190	0	32320	
6191	0	32636	
6192	0	32984	
6193	0	33420	
6194	0	33060	
6195	0	33076	
6196	0	33716	
6197	0	34201	
6198	0	33888	
6199	0	33346	
6200	0	33552	
6201	0	33700	
6202	0	33336	
6203	0	32413	
6204	0	32430	
6205	0	32308	
6206	0	31712	
6207	0	32324	
6208	0	32024	
6209	0	31524	
6210	0	31792	
6211	0	33302	
6212	0	34289	
6213	0	33296	
6214	0	32133	
6215	0	32030	
6216	0	33500	
6217	0	32880	
6218	0	31944	
6219	0	31712	
6220	0	32528	
6221	0	33616	
6222	0	33604	
6223	0	33288	
6224	0	33280	
6225	0	33624	
6226	0	33492	
6227	0	33768	
6228	0	33884	
6229	0	33364	
6230	0	32572	
6231	0	31932	
6232	0	31000	
6233	0	30564	
6234	0	31296	
6235	0	31812	
6236	0	32164	
6237	0	32732	
6238	0	32760	
6239	0	32928	
6240	0	33237	
6241	0	33784	
6242	0	33560	
6243	0	33896	
6244	0	33124	
6245	0	32500	
6246	0	32517	
6247	0	32146	
6248	0	31652	
6249	0	31524	
6250	0	31532	
6251	0	32420	
6252	0	32540	
6253	0	33116	
6254	0	33248	
6255	0	33736	
6256	0	34504	
6257	0	34216	
6258	0	34400	
6259	0	34256	
6260	0	33796	
6261	0	33736	
6262	0	33700	
6263	0	33472	
6264	0	32764	
6265	0	32000	
6266	0	31280	
6267	0	31204	
6268	0	31388	
6269	0	31548	
6270	0	31676	
6271	0	31680	
6272	0	31896	
6273	0	31728	
6274	0	31948	
6275	0	32728	
6276	0	33084	
6277	0	32972	
6278	0	33400	
6279	0	33756	
6280	0	33764	
6281	0	33540	
6282	0	33584	
6283	0	33804	
6284	0	33412	
6285	0	33536	
6286	0	34112	
6287	0	33656	
6288	0	32580	
6289	0	32736	
6290	0	32909	
6291	0	32218	
6292	0	31888	
6293	0	32280	
6294	0	32888	
6295	0	32408	
6296	0	32048	
6297	0	31840	
6298	0	31960	
6299	0	31809	
6300	0	31976	
6301	0	32572	
6302	0	32472	
6303	0	31960	
6304	0	32024	
6305	0	31972	
6306	0	31924	
6307	0	32812	
6308	0	33192	
6309	0	33700	
6310	0	34376	
6311	0	34788	
6312	0	33476	
6313	0	33632	
6314	0	33988	
6315	0	34036	
6316	0	33356	
6317	0	32380	
6318	0	32076	
6319	0	32528	
6320	0	33260	
6321	0	33373	
6322	0	33088	
6323	0	33116	
6324	0	32740	
6325	0	31854	
6326	0	31044	
6327	0	30632	
6328	0	30900	
6329	0	31296	
6330	0	31456	
6331	0	31940	
6332	0	32524	
6333	0	32844	
6334	0	33208	
6335	0	33876	
6336	0	33676	
6337	0	33352	
6338	0	33584	
6339	0	34149	
6340	0	34148	
6341	0	33921	
6342	0	33500	
6343	0	33533	
6344	0	33992	
6345	0	33844	
6346	0	32720	
6347	0	32320	
6348	0	32054	
6349	0	32006	
6350	0	31992	
6351	0	32124	
6352	0	32028	
6353	0	32072	
6354	0	32240	
6355	0	32148	
6356	0	31952	
6357	0	32064	
6358	0	32260	
6359	0	32974	
6360	0	32920	
6361	0	32970	
6362	0	33336	
6363	0	33612	
6364	0	33220	
6365	0	33188	
6366	0	33212	
6367	0	32604	
6368	0	32756	
6369	0	32784	
6370	0	32264	
6371	0	32444	
6372	0	33228	
6373	0	34528	
6374	0	34084	
6375	0	33380	
6376	0	32888	
6377	0	32404	
6378	0	32652	
6379	0	32392	
6380	0	32372	
6381	0	32476	
6382	0	32232	
6383	0	31800	
6384	0	31572	
6385	0	32072	
6386	0	32732	
6387	0	33348	
6388	0	33416	
6389	0	33240	
6390	0	32868	
6391	0	32536	
6392	0	33016	
6393	0	33039	
6394	0	32564	
6395	0	32592	
6396	0	33004	
6397	0	33024	
6398	0	33344	
6399	0	33168	
6400	0	32788	
6401	0	32220	
6402	0	32160	
6403	0	32200	
6404	0	31736	
6405	0	31476	
6406	0	31592	
6407	0	31637	
6408	0	31996	
6409	0	32324	
6410	0	32380	
6411	0	32476	
6412	0	33728	
6413	0	34868	
6414	0	35812	
6415	0	35428	
6416	0	34152	
6417	0	33860	
6418	0	33704	
6419	0	33436	
6420	0	33108	
6421	0	32468	
6422	0	32328	
6423	0	31824	
6424	0	31658	
6425	0	32172	
6426	0	33364	
6427	0	33540	
6428	0	32820	
6429	0	32432	
6430	0	32056	
6431	0	31624	
6432	0	31184	
6433	0	31144	
6434	0	31784	
6435	0	32217	
6436	0	32440	
6437	0	32748	
6438	0	32800	
6439	0	32840	
6440	0	33156	
6441	0	33704	
6442	0	33484	
6443	0	33428	
6444	0	33312	
6445	0	33388	
6446	0	33824	
6447	0	33388	
6448	0	33100	
6449	0	32824	
6450	0	32852	
6451	0	32916	
6452	0	32918	
6453	0	32750	
6454	0	32732	
6455	0	32540	
6456	0	32340	
6457	0	32284	
6458	0	32224	
6459	0	32328	
6460	0	32329	
6461	0	32516	
6462	0	32608	
6463	0	32544	
6464	0	32708	
6465	0	32656	
6466	0	32584	
6467	0	32476	
6468	0	32448	
6469	0	32728	
6470	0	32772	
6471	0	32822	
6472	0	32748	
6473	0	32812	
6474	0	32784	
6475	0	32652	
6476	0	32832	
6477	0	33228	
6478	0	33316	
6479	0	33372	
6480	0	33232	
6481	0	33052	
6482	0	32822	
6483	0	32680	
6484	0	32348	
6485	0	32116	
6486	0	32088	
6487	0	32040	
6488	0	31880	
6489	0	31648	
6490	0	31868	
6491	0	31916	
6492	0	32672	
6493	0	33032	
6494	0	33580	
6495	0	34116	
6496	0	34228	
6497	0	34088	
6498	0	33428	
6499	0	33516	
6500	0	33878	
6501	0	33984	
6502	0	33996	
6503	0	33264	
6504	0	33084	
6505	0	33172	
6506	0	32748	
6507	0	32161	
6508	0	32000	
6509	0	32140	
6510	0	32440	
6511	0	32480	
6512	0	32176	
6513	0	32164	
6514	0	32092	
6515	0	32156	
6516	0	32220	
6517	0	32360	
6518	0	32492	
6519	0	32552	
6520	0	32572	
6521	0	32732	
6522	0	32868	
6523	0	33016	
6524	0	33253	
6525	0	33452	
6526	0	33276	
6527	0	32904	
6528	0	32752	
6529	0	32436	
6530	0	32612	
6531	0	32628	
6532	0	32556	
6533	0	32570	
6534	0	32576	
6535	0	32480	
6536	0	32904	
6537	0	32960	
6538	0	32876	
6539	0	32776	
6540	0	32652	
6541	0	32644	
6542	0	32596	
6543	0	32600	
6544	0	32660	
6545	0	32724	
6546	0	33152	
6547	0	33140	
6548	0	33232	
6549	0	33304	
6550	0	33252	
6551	0	32976	
6552	0	32804	
6553	0	32788	
6554	0	32652	
6555	0	32496	
6556	0	32540	
6557	0	32553	
6558	0	32408	
6559	0	32520	
6560	0	32596	
6561	0	32524	
6562	0	32624	
6563	0	32864	
6564	0	32772	
6565	0	32329	
6566	0	32276	
6567	0	32072	
6568	0	32008	
6569	0	32624	
6570	0	32688	
6571	0	33172	
6572	0	33560	
6573	0	33620	
6574	0	33636	
6575	0	33140	
6576	0	33016	
6577	0	33152	
6578	0	33508	
6579	0	33320	
6580	0	33160	
6581	0	33052	
6582	0	32816	
6583	0	32720	
6584	0	32652	
6585	0	32320	
6586	0	32008	
6587	0	32012	
6588	0	32289	
6589	0	32496	
6590	0	32732	
6591	0	32800	
6592	0	33028	
6593	0	33253	
6594	0	33481	
6595	0	33520	
6596	0	33936	
6597	0	34104	
6598	0	33268	
6599	0	32404	
6600	0	32052	
6601	0	31960	
6602	0	31983	
6603	0	32240	
6604	0	32720	
6605	0	33044	
6606	0	32764	
6607	0	32600	
6608	0	32372	
6609	0	32381	
6610	0	32532	
6611	0	32636	
6612	0	32660	
6613	0	32520	
6614	0	32500	
6615	0	32832	
6616	0	32956	
6617	0	32848	
6618	0	32984	
6619	0	33188	
6620	0	32956	
6621	0	32608	
6622	0	32724	
6623	0	32822	
6624	0	32964	
6625	0	32968	
6626	0	32793	
6627	0	32644	
6628	0	32597	
6629	0	32448	
6630	0	32668	
6631	0	32384	
6632	0	32392	
6633	0	32452	
6634	0	32506	
6635	0	32628	
6636	0	32836	
6637	0	32988	
6638	0	33204	
6639	0	32993	
6640	0	33096	
6641	0	33140	
6642	0	33168	
6643	0	33156	
6644	0	33216	
6645	0	33204	
6646	0	33068	
6647	0	32840	
6648	0	32760	
6649	0	32656	
6650	0	32568	
6651	0	32312	
6652	0	32404	
6653	0	32480	
6654	0	32564	
6655	0	32596	
6656	0	32809	
6657	0	32576	
6658	0	32544	
6659	0	32596	
6660	0	32684	
6661	0	32628	
6662	0	32384	
6663	0	32340	
6664	0	32784	
6665	0	32996	
6666	0	32844	
6667	0	32757	
6668	0	32952	
6669	0	33200	
6670	0	33608	
6671	0	33388	
6672	0	33400	
6673	0	33224	
6674	0	33088	
6675	0	33068	
6676	0	33092	
6677	0	32925	
6678	0	33064	
6679	0	33120	
6680	0	32816	
6681	0	32524	
6682	0	32300	
6683	0	32448	
6684	0	32388	
6685	0	32148	
6686	0	32364	
6687	0	32452	
6688	0	32437	
6689	0	32544	
6690	0	32680	
6691	0	32640	
6692	0	32772	
6693	0	32728	
6694	0	32932	
6695	0	32908	
6696	0	32881	
6697	0	32756	
6698	0	32660	
6699	0	32704	
6700	0	32716	
6701	0	32788	
6702	0	32880	
6703	0	32857	
6704	0	32856	
6705	0	32924	
6706	0	32798	
6707	0	32808	
6708	0	32850	
6709	0	32952	
6710	0	32854	
6711	0	32888	
6712	0	32740	
6713	0	32752	
6714	0	32756	
6715	0	32796	
6716	0	32957	
6717	0	32868	
6718	0	32716	
6719	0	32558	
6720	0	32596	
6721	0	32696	
6722	0	32828	
6723	0	32772	
6724	0	32661	
6725	0	32484	
6726	0	32688	
6727	0	32833	
6728	0	32704	
6729	0	32429	
6730	0	32180	
6731	0	32592	
6732	0	32881	
6733	0	33040	
6734	0	33136	
6735	0	33224	
6736	0	33420	
6737	0	33572	
6738	0	33492	
6739	0	33088	
6740	0	33056	
6741	0	32788	
6742	0	32833	
6743	0	32748	
6744	0	32760	
6745	0	32661	
6746	0	32340	
6747	0	32260	
6748	0	32260	
6749	0	32044	
6750	0	32246	
6751	0	32444	
6752	0	32356	
6753	0	32492	
6754	0	32548	
6755	0	32744	
6756	0	32884	
6757	0	32960	
6758	0	33228	
6759	0	33508	
6760	0	33414	
6761	0	33696	
6762	0	33832	
6763	0	33808	
6764	0	33236	
6765	0	32652	
6766	0	32488	
6767	0	32544	
6768	0	32476	
6769	0	32480	
6770	0	32616	
6771	0	32576	
6772	0	32376	
6773	0	32525	
6774	0	32508	
6775	0	32532	
6776	0	32550	
6777	0	32600	
6778	0	32645	
6779	0	32588	
6780	0	32708	
6781	0	32752	
6782	0	32720	
6783	0	32636	
6784	0	32584	
6785	0	32724	
6786	0	32540	
6787	0	32568	
6788	0	32552	
6789	0	32588	
6790	0	32549	
6791	0	32748	
6792	0	32780	
6793	0	32880	
6794	0	32856	
6795	0	32768	
6796	0	32756	
6797	0	32812	
6798	0	33044	
6799	0	33136	
6800	0	33368	
6801	0	33416	
6802	0	33496	
6803	0	33500	
6804	0	33110	
6805	0	32792	
6806	0	32748	
6807	0	32688	
6808	0	32604	
6809	0	32632	
6810	0	32688	
6811	0	32657	
6812	0	32566	
6813	0	32492	
6814	0	32484	
6815	0	32420	
6816	0	32380	
6817	0	32500	
6818	0	32600	
6819	0	32484	
6820	0	32509	
6821	0	32516	
6822	0	32716	
6823	0	32928	
6824	0	33008	
6825	0	32992	
6826	0	33237	
6827	0	33240	
6828	0	32964	
6829	0	32936	
6830	0	32932	
6831	0	33156	
6832	0	32960	
6833	0	32448	
6834	0	32300	
6835	0	32632	
6836	0	32848	
6837	0	32929	
6838	0	32876	
6839	0	32744	
6840	0	32836	
6841	0	32884	
6842	0	33020	
6843	0	32996	
6844	0	32768	
6845	0	32900	
6846	0	33236	
6847	0	33216	
6848	0	33000	
6849	0	32772	
6850	0	32513	
6851	0	32364	
6852	0	32412	
6853	0	32636	
6854	0	32716	
6855	0	32588	
6856	0	32472	
6857	0	32300	
6858	0	32464	
6859	0	32466	
6860	0	32576	
6861	0	32725	
6862	0	32734	
6863	0	32737	
6864	0	33144	
6865	0	33220	
6866	0	33108	
6867	0	33096	
6868	0	33096	
6869	0	33060	
6870	0	32917	
6871	0	32948	
6872	0	32740	
6873	0	32628	
6874	0	32732	
6875	0	32856	
6876	0	32752	
6877	0	32572	
6878	0	32552	
6879	0	32516	
6880	0	32572	
6881	0	32481	
6882	0	32772	
6883	0	33036	
6884	0	33150	
6885	0	33100	
6886	0	32832	
6887	0	32612	
6888	0	32552	
6889	0	32568	
6890	0	32628	
6891	0	32860	
6892	0	32716	
6893	0	32733	
6894	0	32524	
6895	0	32596	
6896	0	32672	
6897	0	32688	
6898	0	32712	
6899	0	32824	
6900	0	32916	
6901	0	33004	
6902	0	32912	
6903	0	33204	
6904	0	33524	
6905	0	33300	
6906	0	32940	
6907	0	32878	
6908	0	32824	
6909	0	32752	
6910	0	32812	
6911	0	32804	
6912	0	32792	
6913	0	32588	
6914	0	32388	
6915	0	32336	
6916	0	32436	
6917	0	32608	
6918	0	32684	
6919	0	32741	
6920	0	32678	
6921	0	32672	
6922	0	32748	
6923	0	32737	
6924	0	32824	
6925	0	32692	
6926	0	32782	
6927	0	32784	
6928	0	32832	
6929	0	32860	
6930	0	32776	
6931	0	32685	
6932	0	32719	
6933	0	32664	
6934	0	32564	
6935	0	32408	
6936	0	32348	
6937	0	32388	
6938	0	32488	
6939	0	32500	
6940	0	32588	
6941	0	32940	
6942	0	33144	
6943	0	33488	
6944	0	33352	
6945	0	33096	
6946	0	33164	
6947	0	33484	
6948	0	33584	
6949	0	33428	
6950	0	33168	
6951	0	33008	
6952	0	33088	
6953	0	32844	
6954	0	32276	
6955	0	32064	
6956	0	32244	
6957	0	32192	
6958	0	32157	
6959	0	32348	
6960	0	32533	
6961	0	32676	
6962	0	32572	
6963	0	32912	
6964	0	33144	
6965	0	33238	
6966	0	33316	
6967	0	33012	
6968	0	33014	
6969	0	33000	
6970	0	32812	
6971	0	32604	
6972	0	32504	
6973	0	32444	
6974	0	32652	
6975	0	32812	
6976	0	32764	
6977	0	32580	
6978	0	32469	
6979	0	32661	
6980	0	32732	
6981	0	32784	
6982	0	32852	
6983	0	32760	
6984	0	32844	
6985	0	32768	
6986	0	32772	
6987	0	32797	
6988	0	32732	
6989	0	32761	
6990	0	32660	
6991	0	32445	
6992	0	32492	
6993	0	32672	
6994	0	32688	
6995	0	32629	
6996	0	32556	
6997	0	32556	
6998	0	32700	
6999	0	32804	
7000	0	32864	
7001	0	32664	
7002	0	32836	
7003	0	32996	
7004	0	33109	
7005	0	33052	
7006	0	33045	
7007	0	32820	
7008	0	32912	
7009	0	33336	
7010	0	33350	
7011	0	33444	
7012	0	33256	
7013	0	33052	
7014	0	32696	
7015	0	32588	
7016	0	32544	
7017	0	32588	
7018	0	32688	
7019	0	32788	
7020	0	32544	
7021	0	32408	
7022	0	32526	
7023	0	32608	
7024	0	32664	
7025	0	32736	
7026	0	32576	
7027	0	32560	
7028	0	32484	
7029	0	32408	
7030	0	32613	
7031	0	32568	
7032	0	32814	
7033	0	32944	
7034	0	32872	
7035	0	32790	
7036	0	32724	
7037	0	32704	
7038	0	32952	
7039	0	33388	
7040	0	33325	
7041	0	32900	
7042	0	32984	
7043	0	33140	
7044	0	32920	
7045	0	32638	
7046	0	32496	
7047	0	32736	
7048	0	32844	
7049	0	32840	
7050	0	32720	
7051	0	32744	
7052	0	32736	
7053	0	32732	
7054	0	32749	
7055	0	32784	
7056	0	32812	
7057	0	32596	
7058	0	32708	
7059	0	32672	
7060	0	32701	
7061	0	32656	
7062	0	32640	
7063	0	32772	
7064	0	32696	
7065	0	32760	
7066	0	32832	
7067	0	32885	
7068	0	32832	
7069	0	32856	
7070	0	32504	
7071	0	32432	
7072	0	32572	
7073	0	32532	
7074	0	32608	
7075	0	32724	
7076	0	32759	
7077	0	32876	
7078	0	33004	
7079	0	32820	
7080	0	32956	
7081	0	33212	
7082	0	33300	
7083	0	33197	
7084	0	33020	
7085	0	33028	
7086	0	33004	
7087	0	33048	
7088	0	33062	
7089	0	32844	
7090	0	32608	
7091	0	32528	
7092	0	32480	
7093	0	32422	
7094	0	32412	
7095	0	32452	
7096	0	32444	
7097	0	32584	
7098	0	32704	
7099	0	32844	
7100	0	32896	
7101	0	32870	
7102	0	32812	
7103	0	32636	
7104	0	32676	
7105	0	32717	
7106	0	32652	
7107	0	32632	
7108	0	32494	
7109	0	32504	
7110	0	32772	
7111	0	32840	
7112	0	33028	
7113	0	32980	
7114	0	33012	
7115	0	33096	
7116	0	33100	
7117	0	33068	
7118	0	32972	
7119	0	33156	
7120	0	33100	
7121	0	32856	
7122	0	32600	
7123	0	32700	
7124	0	32776	
7125	0	32660	
7126	0	32724	
7127	0	32620	
7128	0	32664	
7129	0	32608	
7130	0	32652	
7131	0	32648	
7132	0	32665	
7133	0	32596	
7134	0	32735	
7135	0	32765	
7136	0	32816	
7137	0	32628	
7138	0	32596	
7139	0	32472	
7140	0	32381	
7141	0	32616	
7142	0	32660	
7143	0	32761	
7144	0	32751	
7145	0	32584	
7146	0	32880	
7147	0	33240	
7148	0	33152	
7149	0	33101	
7150	0	33060	
7151	0	32920	
7152	0	32940	
7153	0	32968	
7154	0	33288	
7155	0	33484	
7156	0	33244	
7157	0	33124	
7158	0	32860	
7159	0	32692	
7160	0	32592	
7161	0	32500	
7162	0	32516	
7163	0	32408	
7164	0	32520	
7165	0	32532	
7166	0	32476	
7167	0	32366	
7168	0	32420	
7169	0	32492	
7170	0	32584	
7171	0	32712	
7172	0	32728	
7173	0	32960	
7174	0	33024	
7175	0	33028	
7176	0	33148	
7177	0	33116	
7178	0	33084	
7179	0	33000	
7180	0	32968	
7181	0	32916	
7182	0	32872	
7183	0	32600	
7184	0	32672	
7185	0	32730	
7186	0	32608	
7187	0	32492	
7188	0	32592	
7189	0	32510	
7190	0	32318	
7191	0	32316	
7192	0	32320	
7193	0	32436	
7194	0	32452	
7195	0	32652	
7196	0	32952	
7197	0	33412	
7198	0	33497	
7199	0	33424	
7200	0	33204	
7201	0	33236	
7202	0	33160	
7203	0	33076	
7204	0	32968	
7205	0	32896	
7206	0	32892	
7207	0	32748	
7208	0	32728	
7209	0	32840	
7210	0	32768	
7211	0	32604	
7212	0	32634	
7213	0	32576	
7214	0	32556	
7215	0	32424	
7216	0	32524	
7217	0	32553	
7218	0	32700	
7219	0	32856	
7220	0	32656	
7221	0	32612	
7222	0	32545	
7223	0	32492	
7224	0	32504	
7225	0	32456	
7226	0	32557	
7227	0	32604	
7228	0	32548	
7229	0	32572	
7230	0	32692	
7231	0	32844	
7232	0	32892	
7233	0	33316	
7234	0	33496	
7235	0	33288	
7236	0	33098	
7237	0	32792	
7238	0	32936	
7239	0	33252	
7240	0	33046	
7241	0	32684	
7242	0	32564	
7243	0	32548	
7244	0	32796	
7245	0	32800	
7246	0	32684	
7247	0	32736	
7248	0	32800	
7249	0	32952	
7250	0	32944	
7251	0	33032	
7252	0	32960	
7253	0	32836	
7254	0	32640	
7255	0	32448	
7256	0	32348	
7257	0	32592	
7258	0	32696	
7259	0	32712	
7260	0	32750	
7261	0	32904	
7262	0	32852	
7263	0	32800	
7264	0	32880	
7265	0	32832	
7266	0	32728	
7267	0	32536	
7268	0	32800	
7269	0	32832	
7270	0	32612	
7271	0	32308	
7272	0	32317	
7273	0	32572	
7274	0	32900	
7275	0	33012	
7276	0	32832	
7277	0	33060	
7278	0	33468	
7279	0	33644	
7280	0	33172	
7281	0	32888	
7282	0	32604	
7283	0	32684	
7284	0	32644	
7285	0	32516	
7286	0	32669	
7287	0	32636	
7288	0	32596	
7289	0	32704	
7290	0	32676	
7291	0	32724	
7292	0	32800	
7293	0	32926	
7294	0	32776	
7295	0	32608	
7296	0	32576	
7297	0	32692	
7298	0	32796	
7299	0	32980	
7300	0	33081	
7301	0	32980	
7302	0	32940	
7303	0	32796	
7304	0	32712	
7305	0	32728	
7306	0	32608	
7307	0	32516	
7308	0	32660	
7309	0	32768	
7310	0	32724	
7311	0	32820	
7312	0	32764	
7313	0	32686	
7314	0	32728	
7315	0	32800	
7316	0	32900	
7317	0	32872	
7318	0	32812	
7319	0	32800	
7320	0	32656	
7321	0	32696	
7322	0	32632	
7323	0	32628	
7324	0	32552	
7325	0	32752	
7326	0	32900	
7327	0	33028	
7328	0	32884	
7329	0	32850	
7330	0	32924	
7331	0	32960	
7332	0	32760	
7333	0	32761	
7334	0	32760	
7335	0	32792	
7336	0	32868	
7337	0	32820	
7338	0	32765	
7339	0	32892	
7340	0	32852	
7341	0	32816	
7342	0	32644	
7343	0	32768	
7344	0	32960	
7345	0	32996	
7346	0	32976	
7347	0	32738	
7348	0	32532	
7349	0	32636	
7350	0	32676	
7351	0	32676	
7352	0	32644	
7353	0	32640	
7354	0	32592	
7355	0	32552	
7356	0	32680	
7357	0	32556	
7358	0	32592	
7359	0	32584	
7360	0	32492	
7361	0	32508	
7362	0	32576	
7363	0	32553	
7364	0	32864	
7365	0	32860	
7366	0	32824	
7367	0	32973	
7368	0	33164	
7369	0	33273	
7370	0	33188	
7371	0	33148	
7372	0	33460	
7373	0	33312	
7374	0	33108	
7375	0	33096	
7376	0	32964	
7377	0	32652	
7378	0	32704	
7379	0	32788	
7380	0	32820	
7381	0	32868	
7382	0	32636	
7383	0	32285	
7384	0	32020	
7385	0	32020	
7386	0	31965	
7387	0	32512	
7388	0	32820	
7389	0	32724	
7390	0	32960	
7391	0	32928	
7392	0	32916	
7393	0	33072	
7394	0	33124	
7395	0	33244	
7396	0	33373	
7397	0	33328	
7398	0	33208	
7399	0	32904	
7400	0	32736	
7401	0	32514	
7402	0	32636	
7403	0	32512	
7404	0	32252	
7405	0	32420	
7406	0	32624	
7407	0	32696	
7408	0	32792	
7409	0	32720	
7410	0	32652	
7411	0	32604	
7412	0	32676	
7413	0	32620	
7414	0	32728	
7415	0	32628	
7416	0	32732	
7417	0	32740	
7418	0	32740	
7419	0	32764	
7420	0	32676	
7421	0	32712	
7422	0	32764	
7423	0	32724	
7424	0	32900	
7425	0	32924	
7426	0	32936	
7427	0	33020	
7428	0	33020	
7429	0	33192	
7430	0	33328	
7431	0	33220	
7432	0	32916	
7433	0	32612	
7434	0	32348	
7435	0	32412	
7436	0	32733	
7437	0	32826	
7438	0	32740	
7439	0	32562	
7440	0	32517	
7441	0	32644	
7442	0	32496	
7443	0	32492	
7444	0	32532	
7445	0	32576	
7446	0	32604	
7447	0	32984	
7448	0	33220	
7449	0	33156	
7450	0	33096	
7451	0	33132	
7452	0	33054	
7453	0	32916	
7454	0	32869	
7455	0	33060	
7456	0	33020	
7457	0	32764	
7458	0	32809	
7459	0	32664	
7460	0	32588	
7461	0	32644	
7462	0	32652	
7463	0	32804	
7464	0	32928	
7465	0	32884	
7466	0	32884	
7467	0	32732	
7468	0	32588	
7469	0	32377	
7470	0	32324	
7471	0	32236	
7472	0	32220	
7473	0	32542	
7474	0	32792	
7475	0	32756	
7476	0	32828	
7477	0	33120	
7478	0	33232	
7479	0	33172	
7480	0	32992	
7481	0	33128	
7482	0	32885	
7483	0	32788	
7484	0	32520	
7485	0	32576	
7486	0	32900	
7487	0	32788	
7488	0	32772	
7489	0	32880	
7490	0	32852	
7491	0	33004	
7492	0	32956	
7493	0	33048	
7494	0	33068	
7495	0	32976	
7496	0	32840	
7497	0	32732	
7498	0	32444	
7499	0	32357	
7500	0	32388	
7501	0	32481	
7502	0	32486	
7503	0	32496	
7504	0	32536	
7505	0	32766	
7506	0	32980	
7507	0	32908	
7508	0	33036	
7509	0	33276	
7510	0	33037	
7511	0	32686	
7512	0	32548	
7513	0	32404	
7514	0	32468	
7515	0	32692	
7516	0	32848	
7517	0	32888	
7518	0	32957	
7519	0	33216	
7520	0	33100	
7521	0	32992	
7522	0	32996	
7523	0	33054	
7524	0	33024	
7525	0	32944	
7526	0	32784	
7527	0	32629	
7528	0	32592	
7529	0	32596	
7530	0	32640	
7531	0	32644	
7532	0	32644	
7533	0	32608	
7534	0	32380	
7535	0	32520	
7536	0	32680	
7537	0	32736	
7538	0	32680	
7539	0	32736	
7540	0	32752	
7541	0	32744	
7542	0	32804	
7543	0	32780	
7544	0	32660	
7545	0	32744	
7546	0	32780	
7547	0	32872	
7548	0	32741	
7549	0	32704	
7550	0	32892	
7551	0	32910	
7552	0	33148	
7553	0	33304	
7554	0	33253	
7555	0	33065	
7556	0	32868	
7557	0	32812	
7558	0	32868	
7559	0	32892	
7560	0	32846	
7561	0	32772	
7562	0	32753	
7563	0	32640	
7564	0	32400	
7565	0	32468	
7566	0	32396	
7567	0	32284	
7568	0	32337	
7569	0	32296	
7570	0	32316	
7571	0	32580	
7572	0	32772	
7573	0	32772	
7574	0	32808	
7575	0	32864	
7576	0	33252	
7577	0	33196	
7578	0	33076	
7579	0	33140	
7580	0	32852	
7581	0	32444	
7582	0	32849	
7583	0	33064	
7584	0	33252	
7585	0	33188	
7586	0	32965	
7587	0	33072	
7588	0	33172	
7589	0	33034	
7590	0	32905	
7591	0	32908	
7592	0	33020	
7593	0	32764	
7594	0	32509	
7595	0	32408	
7596	0	32596	
7597	0	32568	
7598	0	32476	
7599	0	32485	
7600	0	32580	
7601	0	32676	
7602	0	32668	
7603	0	32676	
7604	0	32612	
7605	0	32689	
7606	0	32704	
7607	0	32624	
7608	0	32662	
7609	0	32644	
7610	0	32704	
7611	0	32724	
7612	0	32584	
7613	0	32496	
7614	0	32388	
7615	0	32700	
7616	0	32700	
7617	0	32720	
7618	0	32784	
7619	0	33068	
7620	0	33028	
7621	0	33232	
7622	0	33256	
7623	0	33076	
7624	0	32984	
7625	0	32980	
7626	0	33044	
7627	0	33156	
7628	0	33104	
7629	0	32996	
7630	0	32660	
7631	0	32532	
7632	0	32686	
7633	0	32764	
7634	0	32928	
7635	0	32887	
7636	0	32692	
7637	0	32496	
7638	0	32428	
7639	0	32376	
7640	0	32317	
7641	0	32308	
7642	0	32356	
7643	0	32216	
7644	0	32276	
7645	0	32364	
7646	0	32324	
7647	0	32564	
7648	0	32876	
7649	0	33168	
7650	0	33412	
7651	0	33552	
7652	0	33752	
7653	0	33700	
7654	0	33452	
7655	0	33224	
7656	0	33304	
7657	0	33428	
7658	0	33101	
7659	0	32500	
7660	0	32244	
7661	0	32008	
7662	0	32040	
7663	0	32380	
7664	0	32452	
7665	0	32672	
7666	0	32600	
7667	0	32492	
7668	0	32669	
7669	0	32684	
7670	0	32656	
7671	0	32704	
7672	0	32864	
7673	0	32861	
7674	0	32740	
7675	0	32732	
7676	0	32740	
7677	0	32813	
7678	0	32860	
7679	0	32900	
7680	0	32856	
7681	0	32868	
7682	0	32879	
7683	0	32743	
7684	0	32668	
7685	0	33016	
7686	0	33376	
7687	0	33292	
7688	0	33032	
7689	0	32760	
7690	0	32640	
7691	0	32540	
7692	0	32416	
7693	0	32520	
7694	0	32628	
7695	0	32648	
7696	0	32812	
7697	0	32848	
7698	0	32788	
7699	0	32676	
7700	0	32552	
7701	0	32688	
7702	0	32988	
7703	0	33024	
7704	0	32800	
7705	0	32544	
7706	0	32540	
7707	0	32664	
7708	0	32734	
7709	0	32680	
7710	0	32816	
7711	0	33008	
7712	0	33056	
7713	0	33112	
7714	0	33228	
7715	0	32929	
7716	0	32684	
7717	0	32668	
7718	0	32685	
7719	0	32728	
7720	0	32701	
7721	0	32669	
7722	0	32756	
7723	0	32760	
7724	0	32832	
7725	0	32784	
7726	0	32732	
7727	0	32552	
7728	0	32584	
7729	0	32704	
7730	0	32576	
7731	0	32556	
7732	0	32568	
7733	0	32828	
7734	0	32812	
7735	0	32800	
7736	0	32816	
7737	0	32928	
7738	0	32788	
7739	0	32712	
7740	0	32629	
7741	0	32780	
7742	0	33148	
7743	0	33368	
7744	0	33344	
7745	0	33072	
7746	0	32854	
7747	0	32928	
7748	0	32976	
7749	0	32904	
7750	0	32680	
7751	0	32636	
7752	0	32488	
7753	0	32389	
7754	0	32332	
7755	0	32320	
7756	0	32260	
7757	0	32248	
7758	0	32340	
7759	0	32608	
7760	0	32920	
7761	0	32956	
7762	0	33216	
7763	0	33281	
7764	0	33105	
7765	0	32980	
7766	0	33084	
7767	0	33141	
7768	0	33060	
7769	0	33056	
7770	0	33060	
7771	0	33072	
7772	0	32708	
7773	0	32504	
7774	0	32392	
7775	0	32524	
7776	0	32648	
7777	0	32976	
7778	0	32752	
7779	0	32800	
7780	0	32872	
7781	0	32708	
7782	0	32725	
7783	0	32596	
7784	0	32612	
7785	0	32484	
7786	0	32528	
7787	0	32476	
7788	0	32576	
7789	0	32604	
7790	0	32748	
7791	0	32812	
7792	0	32796	
7793	0	32660	
7794	0	32832	
7795	0	32952	
7796	0	32960	
7797	0	32948	
7798	0	32808	
7799	0	32735	
7800	0	32648	
7801	0	32696	
7802	0	32812	
7803	0	32884	
7804	0	32960	
7805	0	32912	
7806	0	32752	
7807	0	32636	
7808	0	32800	
7809	0	32952	
7810	0	32912	
7811	0	32830	
7812	0	32869	
7813	0	32908	
7814	0	32912	
7815	0	32824	
7816	0	32685	
7817	0	32536	
7818	0	32344	
7819	0	32664	
7820	0	32856	
7821	0	32916	
7822	0	32972	
7823	0	32768	
7824	0	32668	
7825	0	32864	
7826	0	32780	
7827	0	32816	
7828	0	32672	
7829	0	32760	
7830	0	32828	
7831	0	32916	
7832	0	32924	
7833	0	32946	
7834	0	32768	
7835	0	32636	
7836	0	32628	
7837	0	32780	
7838	0	32836	
7839	0	32808	
7840	0	32848	
7841	0	32760	
7842	0	32621	
7843	0	32592	
7844	0	32800	
7845	0	32928	
7846	0	32832	
7847	0	32908	
7848	0	32908	
7849	0	32630	
7850	0	32512	
7851	0	32576	
7852	0	32692	
7853	0	32756	
7854	0	32768	
7855	0	32752	
7856	0	32780	
7857	0	32696	
7858	0	32612	
7859	0	32552	
7860	0	32749	
7861	0	33124	
7862	0	33236	
7863	0	33076	
7864	0	33016	
7865	0	32916	
7866	0	33048	
7867	0	33060	
7868	0	33060	
7869	0	33080	
7870	0	32980	
7871	0	32728	
7872	0	32676	
7873	0	32768	
7874	0	32753	
7875	0	32568	
7876	0	32332	
7877	0	32372	
7878	0	32572	
7879	0	32608	
7880	0	32588	
7881	0	32542	
7882	0	32772	
7883	0	32796	
7884	0	32757	
7885	0	32864	
7886	0	32896	
7887	0	32748	
7888	0	32568	
7889	0	32584	
7890	0	32700	
7891	0	32548	
7892	0	32609	
7893	0	32760	
7894	0	32708	
7895	0	32728	
7896	0	32684	
7897	0	32736	
7898	0	32840	
7899	0	32942	
7900	0	33004	
7901	0	33080	
7902	0	33132	
7903	0	33064	
7904	0	32936	
7905	0	32940	
7906	0	33160	
7907	0	32896	
7908	0	32812	
7909	0	32580	
7910	0	32556	
7911	0	32804	
7912	0	32726	
7913	0	32592	
7914	0	32532	
7915	0	32700	
7916	0	32568	
7917	0	32730	
7918	0	32892	
7919	0	33088	
7920	0	33342	
7921	0	33636	
7922	0	33312	
7923	0	33216	
7924	0	32952	
7925	0	32686	
7926	0	32392	
7927	0	32324	
7928	0	32336	
7929	0	32404	
7930	0	32320	
7931	0	32516	
7932	0	32480	
7933	0	32432	
7934	0	32480	
7935	0	32688	
7936	0	32732	
7937	0	32716	
7938	0	32750	
7939	0	33142	
7940	0	33388	
7941	0	33248	
7942	0	32984	
7943	0	33016	
7944	0	33152	
7945	0	32988	
7946	0	32736	
7947	0	32580	
7948	0	32572	
7949	0	32488	
7950	0	32596	
7951	0	32648	
7952	0	32524	
7953	0	32698	
7954	0	32940	
7955	0	33188	
7956	0	33021	
7957	0	32756	
7958	0	32696	
7959	0	32824	
7960	0	32813	
7961	0	32800	
7962	0	32670	
7963	0	32484	
7964	0	32484	
7965	0	32532	
7966	0	32540	
7967	0	32468	
7968	0	32364	
7969	0	32432	
7970	0	32513	
7971	0	32592	
7972	0	32848	
7973	0	33180	
7974	0	33128	
7975	0	33032	
7976	0	33016	
7977	0	33240	
7978	0	33128	
7979	0	33164	
7980	0	33216	
7981	0	33261	
7982	0	33421	
7983	0	32996	
7984	0	32700	
7985	0	32624	
7986	0	32512	
7987	0	32312	
7988	0	32396	
7989	0	32468	
7990	0	32644	
7991	0	32613	
7992	0	32620	
7993	0	32645	
7994	0	32564	
7995	0	32600	
7996	0	32572	
7997	0	32668	
7998	0	32756	
7999	0	32768	
8000	0	33028	
8001	0	33128	
8002	0	33137	
8003	0	33064	
8004	0	32844	
8005	0	32736	
8006	0	32916	
8007	0	32700	
8008	0	32532	
8009	0	32612	
8010	0	32760	
8011	0	32892	
8012	0	32837	
8013	0	32752	
8014	0	32702	
8015	0	32877	
8016	0	32756	
8017	0	32717	
8018	0	32568	
8019	0	32680	
8020	0	32656	
8021	0	32492	
8022	0	32656	
8023	0	32744	
8024	0	32688	
8025	0	32744	
8026	0	33020	
8027	0	32828	
8028	0	32984	
8029	0	33009	
8030	0	33044	
8031	0	33140	
8032	0	32864	
8033	0	32788	
8034	0	32820	
8035	0	32920	
8036	0	32788	
8037	0	32736	
8038	0	32692	
8039	0	32676	
8040	0	32840	
8041	0	32816	
8042	0	32629	
8043	0	32612	
8044	0	32480	
8045	0	32580	
8046	0	32668	
8047	0	32669	
8048	0	32648	
8049	0	32728	
8050	0	32784	
8051	0	32840	
8052	0	32613	
8053	0	32644	
8054	0	32812	
8055	0	32768	
8056	0	32944	
8057	0	33180	
8058	0	33176	
8059	0	32968	
8060	0	32797	
8061	0	32900	
8062	0	32572	
8063	0	32652	
8064	0	32692	
8065	0	32744	
8066	0	32905	
8067	0	32894	
8068	0	32836	
8069	0	32876	
8070	0	32840	
8071	0	32672	
8072	0	32624	
8073	0	32570	
8074	0	32561	
8075	0	32644	
8076	0	32750	
8077	0	32836	
8078	0	32828	
8079	0	32824	
8080	0	32608	
8081	0	32456	
8082	0	32408	
8083	0	32724	
8084	0	32928	
8085	0	32824	
8086	0	32908	
8087	0	32932	
8088	0	33072	
8089	0	33060	
8090	0	33204	
8091	0	32884	
8092	0	32632	
8093	0	32756	
8094	0	32812	
8095	0	32936	
8096	0	33056	
8097	0	33060	
8098	0	32900	
8099	0	32804	
8100	0	32908	
8101	0	33033	
8102	0	32916	
8103	0	32664	
8104	0	32468	
8105	0	32448	
8106	0	32421	
8107	0	32452	
8108	0	32608	
8109	0	32644	
8110	0	32560	
8111	0	32632	
8112	0	32760	
8113	0	32816	
8114	0	32700	
8115	0	32608	
8116	0	32616	
8117	0	32664	
8118	0	32740	
8119	0	32720	
8120	0	32820	
8121	0	32764	
8122	0	32812	
8123	0	32744	
8124	0	32917	
8125	0	32944	
8126	0	32964	
8127	0	32844	
8128	0	32940	
8129	0	33044	
8130	0	32821	
8131	0	32897	
8132	0	32968	
8133	0	32901	
8134	0	32740	
8135	0	32852	
8136	0	32812	
8137	0	32752	
8138	0	32720	
8139	0	32628	
8140	0	32596	
8141	0	32684	
8142	0	32644	
8143	0	32796	
8144	0	32892	
8145	0	32822	
8146	0	32688	
8147	0	32662	
8148	0	32636	
8149	0	32704	
8150	0	32748	
8151	0	32708	
8152	0	32692	
8153	0	32717	
8154	0	32760	
8155	0	32868	
8156	0	32836	
8157	0	32676	
8158	0	32508	
8159	0	32608	
8160	0	32676	
8161	0	32900	
8162	0	32929	
8163	0	32908	
8164	0	32964	
8165	0	33064	
8166	0	33040	
8167	0	33077	
8168	0	33004	
8169	0	32988	
8170	0	33156	
8171	0	33212	
8172	0	32988	
8173	0	32732	
8174	0	32374	
8175	0	32436	
8176	0	32508	
8177	0	32462	
8178	0	32238	
8179	0	32184	
8180	0	32309	
8181	0	32528	
8182	0	32696	
8183	0	32760	
8184	0	32736	
8185	0	32960	
8186	0	33328	
8187	0	33192	
8188	0	33156	
8189	0	33204	
8190	0	33324	
8191	0	33260	
8192	0	32984	
8193	0	32768	
8194	0	32720	
8195	0	32756	
8196	0	32772	
8197	0	32516	
8198	0	32420	
8199	0	32377	
8200	0	32496	
8201	0	32480	
8202	0	32516	
8203	0	32505	
8204	0	32512	
8205	0	32640	
8206	0	32780	
8207	0	32852	
8208	0	32964	
8209	0	32868	
8210	0	32789	
8211	0	33052	
8212	0	33244	
8213	0	33134	
8214	0	32888	
8215	0	32564	
8216	0	32592	
8217	0	32728	
8218	0	32560	
8219	0	32628	
8220	0	32900	
8221	0	32940	
8222	0	32984	
8223	0	32936	
8224	0	32849	
8225	0	32700	
8226	0	32716	
8227	0	32886	
8228	0	32904	
8229	0	32868	
8230	0	32672	
8231	0	32544	
8232	0	32504	
8233	0	32484	
8234	0	32216	
8235	0	32384	
8236	0	32549	
8237	0	32592	
8238	0	32748	
8239	0	32816	
8240	0	32969	
8241	0	33104	
8242	0	33128	
8243	0	33064	
8244	0	33248	
8245	0	33084	
8246	0	32720	
8247	0	32764	
8248	0	32920	
8249	0	32624	
8250	0	32732	
8251	0	32904	
8252	0	32864	
8253	0	32652	
8254	0	32804	
8255	0	32884	
8256	0	32968	
8257	0	32884	
8258	0	32972	
8259	0	33025	
8260	0	33048	
8261	0	32756	
8262	0	32528	
8263	0	32468	
8264	0	32460	
8265	0	32580	
8266	0	32548	
8267	0	32444	
8268	0	32604	
8269	0	32428	
8270	0	32404	
8271	0	32420	
8272	0	32532	
8273	0	33016	
8274	0	33102	
8275	0	32997	
8276	0	32780	
8277	0	32628	
8278	0	32756	
8279	0	32928	
8280	0	33320	
8281	0	33364	
8282	0	33232	
8283	0	33024	
8284	0	32988	
8285	0	32913	
8286	0	32784	
8287	0	32776	
8288	0	32889	
8289	0	33076	
8290	0	32848	
8291	0	32504	
8292	0	32516	
8293	0	32656	
8294	0	32512	
8295	0	32520	
8296	0	32681	
8297	0	32780	
8298	0	32692	
8299	0	32680	
8300	0	32632	
8301	0	32728	
8302	0	32748	
8303	0	32640	
8304	0	32577	
8305	0	32686	
8306	0	32527	
8307	0	32448	
8308	0	32504	
8309	0	32700	
8310	0	32984	
8311	0	32944	
8312	0	32894	
8313	0	32588	
8314	0	32552	
8315	0	32668	
8316	0	33012	
8317	0	33144	
8318	0	33220	
8319	0	32912	
8320	0	32825	
8321	0	32940	
8322	0	33056	
8323	0	32956	
8324	0	32972	
8325	0	33060	
8326	0	33248	
8327	0	33068	
8328	0	32840	
8329	0	32476	
8330	0	32416	
8331	0	32413	
8332	0	32512	
8333	0	32646	
8334	0	32704	
8335	0	32616	
8336	0	32596	
8337	0	32768	
8338	0	32772	
8339	0	32708	
8340	0	32740	
8341	0	32840	
8342	0	32872	
8343	0	32760	
8344	0	32736	
8345	0	32788	
8346	0	32757	
8347	0	32748	
8348	0	32736	
8349	0	32728	
8350	0	32780	
8351	0	32896	
8352	0	32672	
8353	0	32792	
8354	0	32832	
8355	0	32736	
8356	0	32680	
8357	0	32764	
8358	0	33012	
8359	0	32976	
8360	0	32768	
8361	0	32852	
8362	0	33249	
8363	0	33096	
8364	0	32888	
8365	0	32756	
8366	0	32656	
8367	0	32544	
8368	0	32560	
8369	0	32428	
8370	0	32540	
8371	0	32744	
8372	0	32872	
8373	0	32806	
8374	0	32768	
8375	0	32796	
8376	0	32796	
8377	0	33000	
8378	0	33248	
8379	0	33158	
8380	0	32844	
8381	0	32804	
8382	0	32661	
8383	0	32520	
8384	0	32520	
8385	0	32644	
8386	0	32877	
8387	0	32964	
8388	0	32864	
8389	0	32622	
8390	0	32460	
8391	0	32528	
8392	0	32556	
8393	0	32564	
8394	0	32444	
8395	0	32444	
8396	0	32932	
8397	0	33084	
8398	0	33092	
8399	0	32952	
8400	0	32736	
8401	0	32764	
8402	0	32960	
8403	0	33188	
8404	0	33332	
8405	0	32960	
8406	0	32661	
8407	0	32600	
8408	0	32452	
8409	0	32708	
8410	0	32669	
8411	0	32800	
8412	0	32844	
8413	0	32996	
8414	0	32968	
8415	0	32736	
8416	0	32665	
8417	0	32592	
8418	0	32553	
8419	0	32660	
8420	0	32652	
8421	0	32796	
8422	0	32792	
8423	0	32796	
8424	0	33044	
8425	0	33060	
8426	0	32900	
8427	0	33028	
8428	0	32836	
8429	0	32748	
8430	0	32668	
8431	0	32612	
8432	0	32544	
8433	0	32808	
8434	0	32832	
8435	0	32700	
8436	0	32494	
8437	0	32519	
8438	0	32532	
8439	0	32684	
8440	0	32456	
8441	0	32344	
8442	0	32652	
8443	0	32837	
8444	0	33080	
8445	0	33028	
8446	0	32956	
8447	0	33104	
8448	0	33196	
8449	0	33228	
8450	0	33156	
8451	0	33073	
8452	0	33052	
8453	0	32968	
8454	0	32636	
8455	0	32416	
8456	0	32364	
8457	0	32484	
8458	0	32592	
8459	0	32460	
8460	0	32356	
8461	0	32449	
8462	0	32668	
8463	0	32848	
8464	0	32948	
8465	0	32868	
8466	0	33008	
8467	0	33128	
8468	0	33220	
8469	0	33188	
8470	0	33036	
8471	0	32884	
8472	0	32688	
8473	0	32664	
8474	0	32568	
8475	0	32536	
8476	0	32568	
8477	0	32484	
8478	0	32565	
8479	0	32661	
8480	0	32612	
8481	0	32609	
8482	0	32572	
8483	0	32736	
8484	0	32832	
8485	0	32884	
8486	0	32804	
8487	0	32932	
8488	0	32916	
8489	0	32980	
8490	0	32780	
8491	0	32684	
8492	0	32816	
8493	0	32985	
8494	0	32996	
8495	0	32772	
8496	0	32796	
8497	0	32804	
8498	0	32724	
8499	0	32704	
8500	0	32568	
8501	0	32450	
8502	0	32704	
8503	0	32840	
8504	0	32776	
8505	0	32712	
8506	0	32709	
8507	0	32692	
8508	0	32856	
8509	0	32964	
8510	0	33072	
8511	0	32992	
8512	0	32976	
8513	0	33020	
8514	0	32888	
8515	0	32836	
8516	0	32888	
8517	0	32844	
8518	0	32696	
8519	0	32568	
8520	0	32572	
8521	0	32617	
8522	0	32476	
8523	0	32628	
8524	0	33180	
8525	0	33248	
8526	0	33036	
8527	0	32940	
8528	0	32872	
8529	0	32660	
8530	0	32632	
8531	0	32732	
8532	0	32732	
8533	0	32524	
8534	0	32396	
8535	0	32408	
8536	0	32564	
8537	0	32520	
8538	0	32570	
8539	0	32772	
8540	0	32844	
8541	0	32824	
8542	0	32932	
8543	0	33100	
8544	0	33064	
8545	0	32748	
8546	0	32676	
8547	0	32685	
8548	0	32680	
8549	0	32744	
8550	0	32864	
8551	0	32876	
8552	0	32692	
8553	0	32616	
8554	0	32712	
8555	0	32772	
8556	0	32668	
8557	0	32664	
8558	0	32692	
8559	0	32932	
8560	0	33112	
8561	0	32878	
8562	0	32950	
8563	0	32816	
8564	0	32806	
8565	0	32774	
8566	0	32672	
8567	0	32544	
8568	0	32548	
8569	0	32444	
8570	0	32260	
8571	0	32288	
8572	0	32340	
8573	0	32524	
8574	0	32768	
8575	0	33125	
8576	0	33453	
8577	0	33580	
8578	0	33500	
8579	0	33552	
8580	0	33656	
8581	0	33596	
8582	0	33240	
8583	0	33264	
8584	0	33020	
8585	0	32816	
8586	0	32608	
8587	0	32450	
8588	0	32324	
8589	0	32284	
8590	0	32452	
8591	0	32452	
8592	0	32462	
8593	0	32428	
8594	0	32561	
8595	0	32566	
8596	0	32500	
8597	0	32556	
8598	0	32576	
8599	0	32577	
8600	0	32544	
8601	0	32720	
8602	0	32741	
8603	0	32616	
8604	0	32744	
8605	0	32792	
8606	0	32876	
8607	0	33004	
8608	0	33096	
8609	0	32924	
8610	0	32928	
8611	0	33188	
8612	0	33296	
