# OpenSignals Text File Format. Version 1
# {"00:07:80:4D:2E:9E": {"sensor": ["CUSTOM/0.5/1.0/V"], "device name": "00:07:80:4D:2E:9E", "column": ["nSeq", "DI", "CH1"], "sync interval": 2, "time": "16:21:55.9", "comments": "", "device connection": "BTH00:07:80:4D:2E:9E", "channels": [1], "keywords": "", "mode": 0, "digital IO": [0, 1], "firmware version": 774, "device": "biosignalsplux", "position": 0, "sampling rate": 1000, "label": ["CH1"], "resolution": [16], "date": "2020-7-11", "special": [{}]}}
# EndOfHeader
0	0	32804	
1	0	32492	
2	0	32588	
3	0	33004	
4	0	33117	
5	0	33256	
6	0	33408	
7	0	33320	
8	0	33388	
9	0	33100	
10	0	32960	
11	0	32860	
12	0	32680	
13	0	32414	
14	0	32180	
15	0	31984	
16	0	31960	
17	0	32028	
18	0	32248	
19	0	32648	
20	0	32780	
21	0	32864	
22	0	33037	
23	0	33402	
24	0	33502	
25	0	33252	
26	0	33184	
27	0	32920	
28	0	32704	
29	0	32482	
30	0	32081	
31	0	32136	
32	0	32348	
33	0	32770	
34	0	33189	
35	0	33288	
36	0	32936	
37	0	32516	
38	0	32549	
39	0	32428	
40	0	32508	
41	0	32528	
42	0	32488	
43	0	32525	
44	0	32645	
45	0	32992	
46	0	33089	
47	0	33208	
48	0	32924	
49	0	32800	
50	0	32504	
51	0	32584	
52	0	32569	
53	0	32620	
54	0	32976	
55	0	33044	
56	0	33024	
57	0	32896	
58	0	33020	
59	0	32804	
60	0	33060	
61	0	33352	
62	0	33252	
63	0	32948	
64	0	32888	
65	0	33164	
66	0	33352	
67	0	33172	
68	0	32772	
69	0	32548	
70	0	32300	
71	0	32260	
72	0	32204	
73	0	31970	
74	0	32136	
75	0	32580	
76	0	32576	
77	0	32724	
78	0	33016	
79	0	33396	
80	0	33488	
81	0	33368	
82	0	33228	
83	0	32936	
84	0	32704	
85	0	32496	
86	0	32284	
87	0	32216	
88	0	32312	
89	0	32544	
90	0	32700	
91	0	33104	
92	0	33164	
93	0	32880	
94	0	32692	
95	0	32864	
96	0	33064	
97	0	33056	
98	0	32808	
99	0	32896	
100	0	32940	
101	0	32769	
102	0	32768	
103	0	32736	
104	0	32744	
105	0	32692	
106	0	32672	
107	0	32840	
108	0	32804	
109	0	32740	
110	0	32684	
111	0	32516	
112	0	32520	
113	0	32484	
114	0	32592	
115	0	32916	
116	0	33048	
117	0	32944	
118	0	33128	
119	0	33028	
120	0	32892	
121	0	33004	
122	0	32976	
123	0	32940	
124	0	32776	
125	0	32744	
126	0	32728	
127	0	32884	
128	0	32760	
129	0	32708	
130	0	32588	
131	0	32432	
132	0	32428	
133	0	32364	
134	0	32308	
135	0	31712	
136	0	31150	
137	0	31336	
138	0	31856	
139	0	32688	
140	0	33228	
141	0	33508	
142	0	33964	
143	0	34192	
144	0	34284	
145	0	34892	
146	0	35320	
147	0	34248	
148	0	33100	
149	0	32716	
150	0	32711	
151	0	32468	
152	0	32284	
153	0	32120	
154	0	32044	
155	0	32108	
156	0	32342	
157	0	32204	
158	0	32184	
159	0	32352	
160	0	32476	
161	0	32508	
162	0	32424	
163	0	32356	
164	0	32260	
165	0	32136	
166	0	32100	
167	0	32156	
168	0	32528	
169	0	33116	
170	0	33356	
171	0	33701	
172	0	33708	
173	0	33508	
174	0	33256	
175	0	33256	
176	0	33262	
177	0	32784	
178	0	32692	
179	0	32936	
180	0	32768	
181	0	32492	
182	0	32278	
183	0	32440	
184	0	32316	
185	0	32308	
186	0	32175	
187	0	32121	
188	0	32336	
189	0	32472	
190	0	32469	
191	0	32736	
192	0	33340	
193	0	33684	
194	0	33492	
195	0	33628	
196	0	33380	
197	0	33344	
198	0	32997	
199	0	32606	
200	0	32552	
201	0	32648	
202	0	33040	
203	0	33032	
204	0	32844	
205	0	32680	
206	0	32556	
207	0	32500	
208	0	32365	
209	0	32400	
210	0	32444	
211	0	32700	
212	0	32836	
213	0	32980	
214	0	33209	
215	0	33208	
216	0	32960	
217	0	32828	
218	0	32892	
219	0	32661	
220	0	32580	
221	0	32476	
222	0	32633	
223	0	32740	
224	0	32812	
225	0	32836	
226	0	32784	
227	0	32746	
228	0	32676	
229	0	32652	
230	0	32656	
231	0	32779	
232	0	32712	
233	0	32776	
234	0	32776	
235	0	32816	
236	0	32936	
237	0	32868	
238	0	32800	
239	0	32841	
240	0	32976	
241	0	32849	
242	0	32772	
243	0	32814	
244	0	32852	
245	0	32852	
246	0	32936	
247	0	33056	
248	0	32904	
249	0	32916	
250	0	32864	
251	0	32748	
252	0	32660	
253	0	32688	
254	0	32646	
255	0	32652	
256	0	32660	
257	0	32680	
258	0	32705	
259	0	32776	
260	0	32573	
261	0	32412	
262	0	32420	
263	0	32376	
264	0	32284	
265	0	32246	
266	0	32552	
267	0	33168	
268	0	33328	
269	0	33236	
270	0	33272	
271	0	33364	
272	0	33720	
273	0	33588	
274	0	33272	
275	0	32744	
276	0	32364	
277	0	32216	
278	0	32445	
279	0	32396	
280	0	32328	
281	0	32332	
282	0	32486	
283	0	32260	
284	0	32356	
285	0	32576	
286	0	32718	
287	0	32800	
288	0	32836	
289	0	32844	
290	0	33020	
291	0	33476	
292	0	33568	
293	0	33476	
294	0	33356	
295	0	33415	
296	0	33108	
297	0	32848	
298	0	32772	
299	0	32556	
300	0	32436	
301	0	32500	
302	0	32566	
303	0	32664	
304	0	32616	
305	0	32452	
306	0	32304	
307	0	32252	
308	0	32148	
309	0	32288	
310	0	32405	
311	0	32472	
312	0	32548	
313	0	32893	
314	0	33060	
315	0	33132	
316	0	33196	
317	0	33268	
318	0	33156	
319	0	33168	
320	0	33398	
321	0	32973	
322	0	32464	
323	0	32340	
324	0	32381	
325	0	32496	
326	0	32680	
327	0	32800	
328	0	32732	
329	0	32668	
330	0	32788	
331	0	32776	
332	0	32676	
333	0	32664	
334	0	32980	
335	0	33340	
336	0	33388	
337	0	33196	
338	0	33116	
339	0	32972	
340	0	32836	
341	0	32688	
342	0	32748	
343	0	32580	
344	0	32444	
345	0	32390	
346	0	32356	
347	0	32364	
348	0	32548	
349	0	32668	
350	0	32752	
351	0	32940	
352	0	33228	
353	0	33380	
354	0	33164	
355	0	33277	
356	0	33209	
357	0	33084	
358	0	32824	
359	0	32640	
360	0	32312	
361	0	32452	
362	0	32596	
363	0	32604	
364	0	32605	
365	0	32556	
366	0	32640	
367	0	32648	
368	0	32665	
369	0	32540	
370	0	32800	
371	0	32848	
372	0	32684	
373	0	32576	
374	0	32656	
375	0	32672	
376	0	32784	
377	0	32976	
378	0	33216	
379	0	33184	
380	0	33380	
381	0	33352	
382	0	33184	
383	0	33173	
384	0	33232	
385	0	32984	
386	0	32356	
387	0	32352	
388	0	32612	
389	0	32860	
390	0	32756	
391	0	32670	
392	0	32804	
393	0	32478	
394	0	32456	
395	0	32356	
396	0	32380	
397	0	32812	
398	0	32840	
399	0	32792	
400	0	32757	
401	0	32884	
402	0	32620	
403	0	32320	
404	0	32404	
405	0	33084	
406	0	33724	
407	0	33448	
408	0	33036	
409	0	32965	
410	0	33084	
411	0	33140	
412	0	33284	
413	0	32888	
414	0	32548	
415	0	32668	
416	0	32460	
417	0	32236	
418	0	32303	
419	0	32220	
420	0	32300	
421	0	32500	
422	0	32636	
423	0	32636	
424	0	32724	
425	0	32736	
426	0	32688	
427	0	32684	
428	0	32800	
429	0	32961	
430	0	32900	
431	0	32800	
432	0	32756	
433	0	32804	
434	0	32864	
435	0	32766	
436	0	32764	
437	0	32798	
438	0	32780	
439	0	32712	
440	0	32644	
441	0	32644	
442	0	32652	
443	0	32668	
444	0	32673	
445	0	32860	
446	0	32816	
447	0	32860	
448	0	32952	
449	0	32856	
450	0	32928	
451	0	33048	
452	0	32981	
453	0	33008	
454	0	33016	
455	0	32852	
456	0	32888	
457	0	32761	
458	0	32652	
459	0	32588	
460	0	32456	
461	0	32372	
462	0	32192	
463	0	32132	
464	0	32232	
465	0	32204	
466	0	32552	
467	0	32720	
468	0	32884	
469	0	33264	
470	0	33364	
471	0	33336	
472	0	33552	
473	0	33564	
474	0	33456	
475	0	33340	
476	0	33396	
477	0	33548	
478	0	33432	
479	0	32988	
480	0	32808	
481	0	32616	
482	0	32100	
483	0	31872	
484	0	32196	
485	0	32580	
486	0	32724	
487	0	32808	
488	0	32584	
489	0	32612	
490	0	32812	
491	0	32900	
492	0	32880	
493	0	32809	
494	0	32812	
495	0	32592	
496	0	32568	
497	0	32508	
498	0	32628	
499	0	32728	
500	0	32556	
501	0	32668	
502	0	32678	
503	0	32652	
504	0	32788	
505	0	32784	
506	0	32800	
507	0	32805	
508	0	32840	
509	0	32788	
510	0	32800	
511	0	32836	
512	0	32834	
513	0	32820	
514	0	32720	
515	0	32768	
516	0	32800	
517	0	32728	
518	0	32700	
519	0	32836	
520	0	32976	
521	0	32932	
522	0	33040	
523	0	32964	
524	0	32856	
525	0	32788	
526	0	32800	
527	0	32788	
528	0	32884	
529	0	32680	
530	0	32528	
531	0	32456	
532	0	32478	
533	0	32624	
534	0	32552	
535	0	32700	
536	0	32613	
537	0	32636	
538	0	32700	
539	0	32572	
540	0	32624	
541	0	32684	
542	0	32788	
543	0	33032	
544	0	33021	
545	0	32992	
546	0	33340	
547	0	33600	
548	0	33668	
549	0	33416	
550	0	33292	
551	0	32932	
552	0	32437	
553	0	32264	
554	0	32208	
555	0	32396	
556	0	32420	
557	0	32400	
558	0	32644	
559	0	32612	
560	0	32840	
561	0	32772	
562	0	32912	
563	0	32900	
564	0	32680	
565	0	32440	
566	0	32084	
567	0	32204	
568	0	32764	
569	0	32828	
570	0	33020	
571	0	33236	
572	0	32924	
573	0	32700	
574	0	32932	
575	0	33364	
576	0	33268	
577	0	33096	
578	0	33124	
579	0	33200	
580	0	33032	
581	0	32744	
582	0	33012	
583	0	33188	
584	0	33444	
585	0	32820	
586	0	32444	
587	0	32261	
588	0	32332	
589	0	32312	
590	0	32384	
591	0	32364	
592	0	32476	
593	0	32420	
594	0	32364	
595	0	32276	
596	0	32616	
597	0	32860	
598	0	33032	
599	0	33028	
600	0	33140	
601	0	32888	
602	0	33012	
603	0	32944	
604	0	33008	
605	0	33452	
606	0	33512	
607	0	33100	
608	0	32920	
609	0	32868	
610	0	32780	
611	0	32736	
612	0	32576	
613	0	32420	
614	0	32456	
615	0	32436	
616	0	32456	
617	0	32484	
618	0	32552	
619	0	32672	
620	0	32654	
621	0	32728	
622	0	32832	
623	0	32879	
624	0	32820	
625	0	32856	
626	0	32728	
627	0	32696	
628	0	32741	
629	0	32828	
630	0	32968	
631	0	32921	
632	0	32736	
633	0	32648	
634	0	32696	
635	0	32512	
636	0	32425	
637	0	32590	
638	0	32569	
639	0	32620	
640	0	33249	
641	0	33840	
642	0	33652	
643	0	33189	
644	0	32688	
645	0	32576	
646	0	32500	
647	0	32656	
648	0	32552	
649	0	32492	
650	0	32616	
651	0	32584	
652	0	32576	
653	0	32612	
654	0	32664	
655	0	32804	
656	0	32869	
657	0	32940	
658	0	33001	
659	0	32896	
660	0	32868	
661	0	32772	
662	0	32748	
663	0	32548	
664	0	32588	
665	0	32612	
666	0	32460	
667	0	32720	
668	0	32972	
669	0	33004	
670	0	32904	
671	0	32880	
672	0	33104	
673	0	33056	
674	0	32857	
675	0	32877	
676	0	32836	
677	0	32772	
678	0	32836	
679	0	32992	
680	0	33224	
681	0	33052	
682	0	32736	
683	0	32548	
684	0	32749	
685	0	32832	
686	0	32728	
687	0	32884	
688	0	32688	
689	0	32512	
690	0	32396	
691	0	32480	
692	0	32612	
693	0	32400	
694	0	32304	
695	0	32453	
696	0	32500	
697	0	32704	
698	0	33000	
699	0	33276	
700	0	33276	
701	0	33260	
702	0	33268	
703	0	33192	
704	0	33080	
705	0	33088	
706	0	33017	
707	0	32864	
708	0	32488	
709	0	32468	
710	0	32632	
711	0	32705	
712	0	32544	
713	0	32492	
714	0	32728	
715	0	32620	
716	0	32584	
717	0	32736	
718	0	32736	
719	0	32561	
720	0	32780	
721	0	32928	
722	0	32968	
723	0	32672	
724	0	32540	
725	0	32404	
726	0	32468	
727	0	32600	
728	0	32784	
729	0	32824	
730	0	32724	
731	0	32809	
732	0	32916	
733	0	32804	
734	0	32792	
735	0	33312	
736	0	33236	
737	0	33036	
738	0	32836	
739	0	32904	
740	0	33064	
741	0	33068	
742	0	32784	
743	0	32628	
744	0	32256	
745	0	32112	
746	0	32216	
747	0	32400	
748	0	32708	
749	0	32729	
750	0	32712	
751	0	32596	
752	0	32824	
753	0	33008	
754	0	33072	
755	0	32924	
756	0	33060	
757	0	33116	
758	0	33048	
759	0	32857	
760	0	32785	
761	0	32828	
762	0	32816	
763	0	32896	
764	0	32788	
765	0	32748	
766	0	32628	
767	0	32496	
768	0	32560	
769	0	32544	
770	0	32644	
771	0	32736	
772	0	32760	
773	0	32788	
774	0	32860	
775	0	32873	
776	0	32964	
777	0	32840	
778	0	32812	
779	0	32836	
780	0	32772	
781	0	32688	
782	0	32716	
783	0	32724	
784	0	32672	
785	0	32637	
786	0	32860	
787	0	33164	
788	0	33008	
789	0	32932	
790	0	32784	
791	0	32824	
792	0	32736	
793	0	32660	
794	0	32913	
795	0	32708	
796	0	32652	
797	0	32692	
798	0	32740	
799	0	33085	
800	0	32836	
801	0	32720	
802	0	32608	
803	0	32580	
804	0	32712	
805	0	32872	
806	0	32856	
807	0	32860	
808	0	32600	
809	0	32518	
810	0	32576	
811	0	32592	
812	0	32758	
813	0	32604	
814	0	32608	
815	0	32748	
816	0	33140	
817	0	33152	
818	0	33220	
819	0	33433	
820	0	33272	
821	0	32956	
822	0	32676	
823	0	32481	
824	0	32452	
825	0	32486	
826	0	32532	
827	0	32592	
828	0	32844	
829	0	32868	
830	0	32596	
831	0	32668	
832	0	32592	
833	0	32582	
834	0	32736	
835	0	32884	
836	0	32832	
837	0	32968	
838	0	32936	
839	0	32852	
840	0	32692	
841	0	32588	
842	0	32656	
843	0	32620	
844	0	32740	
845	0	32784	
846	0	32924	
847	0	33000	
848	0	33056	
849	0	32997	
850	0	32896	
851	0	32744	
852	0	32868	
853	0	32992	
854	0	32733	
855	0	32436	
856	0	32420	
857	0	32612	
858	0	32704	
859	0	32704	
860	0	32540	
861	0	32568	
862	0	32716	
863	0	32900	
864	0	32765	
865	0	32864	
866	0	32752	
867	0	32860	
868	0	33124	
869	0	33232	
870	0	32992	
871	0	32776	
872	0	32692	
873	0	32748	
874	0	32608	
875	0	32228	
876	0	32092	
877	0	32248	
878	0	32404	
879	0	32716	
880	0	32972	
881	0	33196	
882	0	33228	
883	0	33009	
884	0	33045	
885	0	33476	
886	0	33380	
887	0	32864	
888	0	32680	
889	0	32649	
890	0	32696	
891	0	32792	
892	0	32896	
893	0	32820	
894	0	32720	
895	0	32700	
896	0	32772	
897	0	32805	
898	0	32768	
899	0	32696	
900	0	32604	
901	0	32696	
902	0	32536	
903	0	32444	
904	0	32492	
905	0	32564	
906	0	32592	
907	0	32704	
908	0	32772	
909	0	32678	
910	0	32736	
911	0	33000	
912	0	33036	
913	0	32916	
914	0	32760	
915	0	32820	
916	0	32784	
917	0	32860	
918	0	32980	
919	0	33053	
920	0	32910	
921	0	32928	
922	0	32900	
923	0	32756	
924	0	32654	
925	0	32492	
926	0	32630	
927	0	32644	
928	0	32760	
929	0	32788	
930	0	32656	
931	0	32676	
932	0	32692	
933	0	32740	
934	0	32840	
935	0	33004	
936	0	33077	
937	0	32772	
938	0	32796	
939	0	33000	
940	0	33180	
941	0	33236	
942	0	32924	
943	0	32776	
944	0	33032	
945	0	32652	
946	0	32504	
947	0	32632	
948	0	32852	
949	0	32732	
950	0	32457	
951	0	32528	
952	0	32644	
953	0	32620	
954	0	32604	
955	0	32628	
956	0	32680	
957	0	32788	
958	0	32916	
959	0	32862	
960	0	32820	
961	0	32816	
962	0	32836	
963	0	32928	
964	0	32988	
965	0	32808	
966	0	32648	
967	0	32476	
968	0	32388	
969	0	32364	
970	0	32388	
971	0	32556	
972	0	32696	
973	0	32841	
974	0	32952	
975	0	33016	
976	0	33052	
977	0	33204	
978	0	33200	
979	0	33120	
980	0	33380	
981	0	33244	
982	0	33192	
983	0	32916	
984	0	32720	
985	0	32696	
986	0	32752	
987	0	32676	
988	0	32532	
989	0	32392	
990	0	32328	
991	0	32428	
992	0	32556	
993	0	32686	
994	0	32620	
995	0	32672	
996	0	32760	
997	0	32793	
998	0	32696	
999	0	32788	
1000	0	32692	
1001	0	32560	
1002	0	32581	
1003	0	32644	
1004	0	32668	
1005	0	32616	
1006	0	32780	
1007	0	32952	
1008	0	32964	
1009	0	33100	
1010	0	33148	
1011	0	33240	
1012	0	33324	
1013	0	33008	
1014	0	32992	
1015	0	32920	
1016	0	32872	
1017	0	32664	
1018	0	32612	
1019	0	32840	
1020	0	32968	
1021	0	32788	
1022	0	32512	
1023	0	32372	
1024	0	32436	
1025	0	32372	
1026	0	32484	
1027	0	32536	
1028	0	32672	
1029	0	32718	
1030	0	32748	
1031	0	32796	
1032	0	32852	
1033	0	32848	
1034	0	32864	
1035	0	33048	
1036	0	33120	
1037	0	33068	
1038	0	32936	
1039	0	32768	
1040	0	32696	
1041	0	32760	
1042	0	32864	
1043	0	32648	
1044	0	32576	
1045	0	32674	
1046	0	32728	
1047	0	32724	
1048	0	32768	
1049	0	32717	
1050	0	32728	
1051	0	32816	
1052	0	32820	
1053	0	32700	
1054	0	32660	
1055	0	32692	
1056	0	32692	
1057	0	32780	
1058	0	32732	
1059	0	32868	
1060	0	32896	
1061	0	32748	
1062	0	32848	
1063	0	32846	
1064	0	32900	
1065	0	32744	
1066	0	32740	
1067	0	32912	
1068	0	33000	
1069	0	32821	
1070	0	32824	
1071	0	32887	
1072	0	32892	
1073	0	32860	
1074	0	32868	
1075	0	32872	
1076	0	32576	
1077	0	32336	
1078	0	32720	
1079	0	33056	
1080	0	32785	
1081	0	32825	
1082	0	32752	
1083	0	32761	
1084	0	32504	
1085	0	32480	
1086	0	32484	
1087	0	32527	
1088	0	32580	
1089	0	32844	
1090	0	32976	
1091	0	33128	
1092	0	33106	
1093	0	32984	
1094	0	33000	
1095	0	33272	
1096	0	33152	
1097	0	32952	
1098	0	32604	
1099	0	32192	
1100	0	32364	
1101	0	32612	
1102	0	32684	
1103	0	32588	
1104	0	32720	
1105	0	32765	
1106	0	32856	
1107	0	33008	
1108	0	33096	
1109	0	32980	
1110	0	32888	
1111	0	33132	
1112	0	33092	
1113	0	32672	
1114	0	32600	
1115	0	32656	
1116	0	32724	
1117	0	32692	
1118	0	32704	
1119	0	32668	
1120	0	32628	
1121	0	32656	
1122	0	32780	
1123	0	32800	
1124	0	32712	
1125	0	32600	
1126	0	32696	
1127	0	32628	
1128	0	32772	
1129	0	32924	
1130	0	32924	
1131	0	32832	
1132	0	32937	
1133	0	32832	
1134	0	32860	
1135	0	33013	
1136	0	33012	
1137	0	32932	
1138	0	32788	
1139	0	32708	
1140	0	32725	
1141	0	32536	
1142	0	32505	
1143	0	32528	
1144	0	32476	
1145	0	32508	
1146	0	32672	
1147	0	32600	
1148	0	32592	
1149	0	32568	
1150	0	32868	
1151	0	32848	
1152	0	32753	
1153	0	32856	
1154	0	32888	
1155	0	32744	
1156	0	32512	
1157	0	32668	
1158	0	32904	
1159	0	32832	
1160	0	32924	
1161	0	33256	
1162	0	33476	
1163	0	33320	
1164	0	33392	
1165	0	33076	
1166	0	32756	
1167	0	32952	
1168	0	33004	
1169	0	33008	
1170	0	32584	
1171	0	32748	
1172	0	32724	
1173	0	32560	
1174	0	32768	
1175	0	32654	
1176	0	32558	
1177	0	32493	
1178	0	32564	
1179	0	32684	
1180	0	32604	
1181	0	32404	
1182	0	32388	
1183	0	32526	
1184	0	32544	
1185	0	32460	
1186	0	32408	
1187	0	32472	
1188	0	32620	
1189	0	32788	
1190	0	32732	
1191	0	32916	
1192	0	32860	
1193	0	33006	
1194	0	33060	
1195	0	33028	
1196	0	32924	
1197	0	32892	
1198	0	33108	
1199	0	33473	
1200	0	33460	
1201	0	33032	
1202	0	32757	
1203	0	32680	
1204	0	32632	
1205	0	32541	
1206	0	32296	
1207	0	32484	
1208	0	32688	
1209	0	32664	
1210	0	32613	
1211	0	32664	
1212	0	32584	
1213	0	32468	
1214	0	32536	
1215	0	32812	
1216	0	32768	
1217	0	32676	
1218	0	32748	
1219	0	32732	
1220	0	32716	
1221	0	32748	
1222	0	32693	
1223	0	32821	
1224	0	32644	
1225	0	32756	
1226	0	33060	
1227	0	33302	
1228	0	33096	
1229	0	33020	
1230	0	33272	
1231	0	33383	
1232	0	33192	
1233	0	33054	
1234	0	32792	
1235	0	32558	
1236	0	32328	
1237	0	32032	
1238	0	32368	
1239	0	32484	
1240	0	32560	
1241	0	32580	
1242	0	32760	
1243	0	32557	
1244	0	32516	
1245	0	32606	
1246	0	32720	
1247	0	32804	
1248	0	33076	
1249	0	33252	
1250	0	32924	
1251	0	32848	
1252	0	32936	
1253	0	32972	
1254	0	32864	
1255	0	32932	
1256	0	32901	
1257	0	32984	
1258	0	33013	
1259	0	33040	
1260	0	33048	
1261	0	33008	
1262	0	32628	
1263	0	32600	
1264	0	32464	
1265	0	32561	
1266	0	32460	
1267	0	32360	
1268	0	32296	
1269	0	32488	
1270	0	32724	
1271	0	32702	
1272	0	32728	
1273	0	32884	
1274	0	32788	
1275	0	32588	
1276	0	32972	
1277	0	33000	
1278	0	32972	
1279	0	32980	
1280	0	33084	
1281	0	32976	
1282	0	33188	
1283	0	33084	
1284	0	32816	
1285	0	32736	
1286	0	32628	
1287	0	32728	
1288	0	32660	
1289	0	32580	
1290	0	32440	
1291	0	32584	
1292	0	32837	
1293	0	33117	
1294	0	32956	
1295	0	32772	
1296	0	32688	
1297	0	32988	
1298	0	32984	
1299	0	32916	
1300	0	32936	
1301	0	32920	
1302	0	32652	
1303	0	32504	
1304	0	32496	
1305	0	32708	
1306	0	32776	
1307	0	32752	
1308	0	32716	
1309	0	32632	
1310	0	32698	
1311	0	32724	
1312	0	32908	
1313	0	32964	
1314	0	32701	
1315	0	32572	
1316	0	32644	
1317	0	32636	
1318	0	32728	
1319	0	32798	
1320	0	32889	
1321	0	32800	
1322	0	32724	
1323	0	32680	
1324	0	32736	
1325	0	32772	
1326	0	32732	
1327	0	32716	
1328	0	33012	
1329	0	32804	
1330	0	32528	
1331	0	32524	
1332	0	32768	
1333	0	32832	
1334	0	33008	
1335	0	32948	
1336	0	33085	
1337	0	33232	
1338	0	33189	
1339	0	33028	
1340	0	32988	
1341	0	33008	
1342	0	32804	
1343	0	32686	
1344	0	32416	
1345	0	31944	
1346	0	31940	
1347	0	32280	
1348	0	32741	
1349	0	32882	
1350	0	32560	
1351	0	32692	
1352	0	33116	
1353	0	33212	
1354	0	33004	
1355	0	32932	
1356	0	32856	
1357	0	32852	
1358	0	33048	
1359	0	33226	
1360	0	33264	
1361	0	33044	
1362	0	32784	
1363	0	32904	
1364	0	32921	
1365	0	33102	
1366	0	32976	
1367	0	32920	
1368	0	32532	
1369	0	32328	
1370	0	32332	
1371	0	32369	
1372	0	32473	
1373	0	32528	
1374	0	32660	
1375	0	32640	
1376	0	32592	
1377	0	32608	
1378	0	32772	
1379	0	32613	
1380	0	32668	
1381	0	32936	
1382	0	32988	
1383	0	32908	
1384	0	32928	
1385	0	32684	
1386	0	32788	
1387	0	32717	
1388	0	32740	
1389	0	32620	
1390	0	32672	
1391	0	32720	
1392	0	32765	
1393	0	32728	
1394	0	32700	
1395	0	32630	
1396	0	32737	
1397	0	32992	
1398	0	32966	
1399	0	32860	
1400	0	32800	
1401	0	32844	
1402	0	32760	
1403	0	32824	
1404	0	32976	
1405	0	33072	
1406	0	32912	
1407	0	33172	
1408	0	33004	
1409	0	32600	
1410	0	32504	
1411	0	32617	
1412	0	32761	
1413	0	32532	
1414	0	32496	
1415	0	32560	
1416	0	32468	
1417	0	32442	
1418	0	32724	
1419	0	32904	
1420	0	32912	
1421	0	33036	
1422	0	32912	
1423	0	32952	
1424	0	32846	
1425	0	33028	
1426	0	32988	
1427	0	33085	
1428	0	32937	
1429	0	32872	
1430	0	33008	
1431	0	33109	
1432	0	33244	
1433	0	32806	
1434	0	32704	
1435	0	32618	
1436	0	32644	
1437	0	32524	
1438	0	32448	
1439	0	32520	
1440	0	32576	
1441	0	32420	
1442	0	32388	
1443	0	32628	
1444	0	32794	
1445	0	32661	
1446	0	32616	
1447	0	32848	
1448	0	32889	
1449	0	32676	
1450	0	32734	
1451	0	32831	
1452	0	32880	
1453	0	32740	
1454	0	32420	
1455	0	32680	
1456	0	32964	
1457	0	33228	
1458	0	33232	
1459	0	33256	
1460	0	33240	
1461	0	33236	
1462	0	32968	
1463	0	32928	
1464	0	32697	
1465	0	32352	
1466	0	32444	
1467	0	32504	
1468	0	32320	
1469	0	32440	
1470	0	32528	
1471	0	32724	
1472	0	32668	
1473	0	32628	
1474	0	32880	
1475	0	32768	
1476	0	32681	
1477	0	32740	
1478	0	32768	
1479	0	32752	
1480	0	32996	
1481	0	32932	
1482	0	33112	
1483	0	33024	
1484	0	32748	
1485	0	32676	
1486	0	32596	
1487	0	32636	
1488	0	32596	
1489	0	32652	
1490	0	32976	
1491	0	32909	
1492	0	32956	
1493	0	33157	
1494	0	33100	
1495	0	33000	
1496	0	32936	
1497	0	33020	
1498	0	32853	
1499	0	32968	
1500	0	32893	
1501	0	32756	
1502	0	32613	
1503	0	32384	
1504	0	32436	
1505	0	32388	
1506	0	32372	
1507	0	32525	
1508	0	32652	
1509	0	32664	
1510	0	32766	
1511	0	32724	
1512	0	32796	
1513	0	32820	
1514	0	32676	
1515	0	32560	
1516	0	32772	
1517	0	32877	
1518	0	32940	
1519	0	33008	
1520	0	32996	
1521	0	32992	
1522	0	32948	
1523	0	33040	
1524	0	33004	
1525	0	32888	
1526	0	32996	
1527	0	33125	
1528	0	33057	
1529	0	32496	
1530	0	32616	
1531	0	32804	
1532	0	32742	
1533	0	32576	
1534	0	32544	
1535	0	32540	
1536	0	32481	
1537	0	32496	
1538	0	32612	
1539	0	32742	
1540	0	32708	
1541	0	32684	
1542	0	32604	
1543	0	32488	
1544	0	32496	
1545	0	32448	
1546	0	32517	
1547	0	32656	
1548	0	32852	
1549	0	33192	
1550	0	33464	
1551	0	33532	
1552	0	33724	
1553	0	33413	
1554	0	33152	
1555	0	32972	
1556	0	33032	
1557	0	32718	
1558	0	32264	
1559	0	32245	
1560	0	32128	
1561	0	32278	
1562	0	32472	
1563	0	32672	
1564	0	32696	
1565	0	32686	
1566	0	32457	
1567	0	32624	
1568	0	32694	
1569	0	32668	
1570	0	32804	
1571	0	32868	
1572	0	32764	
1573	0	32856	
1574	0	32820	
1575	0	32944	
1576	0	33080	
1577	0	32980	
1578	0	32812	
1579	0	32688	
1580	0	32825	
1581	0	33184	
1582	0	33092	
1583	0	32793	
1584	0	32706	
1585	0	32860	
1586	0	32926	
1587	0	32676	
1588	0	32552	
1589	0	32708	
1590	0	32896	
1591	0	32860	
1592	0	33012	
1593	0	33023	
1594	0	32838	
1595	0	32576	
1596	0	32316	
1597	0	32485	
1598	0	32502	
1599	0	32790	
1600	0	33021	
1601	0	32748	
1602	0	32628	
1603	0	32729	
1604	0	32628	
1605	0	32880	
1606	0	32933	
1607	0	32664	
1608	0	32586	
1609	0	32609	
1610	0	32716	
1611	0	32820	
1612	0	32696	
1613	0	32769	
1614	0	32896	
1615	0	33134	
1616	0	33108	
1617	0	33200	
1618	0	32916	
1619	0	32828	
1620	0	32814	
1621	0	32781	
1622	0	32596	
1623	0	32574	
1624	0	32622	
1625	0	32628	
1626	0	32488	
1627	0	32532	
1628	0	32640	
1629	0	32724	
1630	0	33124	
1631	0	33128	
1632	0	33064	
1633	0	32696	
1634	0	32556	
1635	0	32852	
1636	0	32848	
1637	0	32776	
1638	0	32728	
1639	0	32661	
1640	0	32348	
1641	0	32180	
1642	0	32052	
1643	0	32404	
1644	0	32692	
1645	0	33028	
1646	0	33288	
1647	0	33581	
1648	0	33472	
1649	0	33564	
1650	0	33752	
1651	0	33512	
1652	0	33220	
1653	0	33092	
1654	0	32773	
1655	0	32188	
1656	0	31880	
1657	0	32016	
1658	0	32300	
1659	0	32572	
1660	0	32848	
1661	0	33000	
1662	0	32820	
1663	0	32564	
1664	0	32664	
1665	0	32644	
1666	0	32604	
1667	0	32760	
1668	0	33172	
1669	0	33056	
1670	0	32584	
1671	0	32350	
1672	0	32628	
1673	0	32974	
1674	0	32840	
1675	0	32664	
1676	0	32648	
1677	0	32708	
1678	0	32812	
1679	0	32686	
1680	0	32672	
1681	0	32604	
1682	0	32636	
1683	0	32636	
1684	0	32644	
1685	0	32868	
1686	0	32700	
1687	0	32884	
1688	0	32912	
1689	0	32924	
1690	0	32505	
1691	0	32694	
1692	0	33137	
1693	0	33256	
1694	0	32944	
1695	0	32840	
1696	0	33062	
1697	0	33084	
1698	0	32901	
1699	0	32816	
1700	0	32784	
1701	0	32648	
1702	0	32704	
1703	0	32704	
1704	0	32928	
1705	0	32760	
1706	0	32576	
1707	0	32560	
1708	0	32640	
1709	0	32868	
1710	0	32910	
1711	0	32725	
1712	0	32925	
1713	0	32872	
1714	0	32712	
1715	0	32911	
1716	0	33096	
1717	0	32962	
1718	0	32604	
1719	0	32384	
1720	0	32676	
1721	0	32569	
1722	0	32388	
1723	0	32208	
1724	0	32204	
1725	0	32468	
1726	0	32844	
1727	0	33024	
1728	0	33276	
1729	0	33020	
1730	0	32948	
1731	0	33120	
1732	0	33112	
1733	0	33253	
1734	0	33288	
1735	0	33081	
1736	0	32584	
1737	0	32500	
1738	0	32604	
1739	0	32800	
1740	0	32752	
1741	0	32640	
1742	0	32617	
1743	0	32521	
1744	0	32700	
1745	0	32744	
1746	0	32780	
1747	0	32836	
1748	0	32760	
1749	0	32620	
1750	0	32428	
1751	0	32716	
1752	0	32852	
1753	0	32868	
1754	0	32824	
1755	0	32768	
1756	0	32608	
1757	0	32484	
1758	0	32396	
1759	0	32492	
1760	0	32620	
1761	0	32793	
1762	0	32976	
1763	0	33238	
1764	0	33412	
1765	0	33224	
1766	0	33040	
1767	0	32904	
1768	0	33256	
1769	0	32936	
1770	0	32372	
1771	0	32140	
1772	0	32205	
1773	0	32340	
1774	0	32548	
1775	0	32837	
1776	0	32740	
1777	0	33012	
1778	0	33232	
1779	0	33524	
1780	0	33272	
1781	0	33052	
1782	0	32780	
1783	0	32932	
1784	0	32772	
1785	0	32652	
1786	0	32608	
1787	0	32676	
1788	0	32556	
1789	0	32504	
1790	0	32612	
1791	0	32625	
1792	0	32836	
1793	0	32960	
1794	0	32736	
1795	0	32668	
1796	0	32712	
1797	0	32750	
1798	0	32568	
1799	0	32708	
1800	0	32718	
1801	0	32624	
1802	0	32688	
1803	0	32640	
1804	0	32672	
1805	0	32828	
1806	0	32932	
1807	0	32844	
1808	0	32720	
1809	0	32684	
1810	0	32748	
1811	0	32752	
1812	0	32588	
1813	0	32472	
1814	0	32557	
1815	0	32652	
1816	0	32868	
1817	0	33192	
1818	0	33524	
1819	0	33560	
1820	0	33332	
1821	0	32908	
1822	0	32789	
1823	0	32620	
1824	0	32472	
1825	0	32344	
1826	0	32360	
1827	0	32289	
1828	0	32513	
1829	0	32924	
1830	0	33108	
1831	0	33100	
1832	0	33388	
1833	0	33628	
1834	0	33272	
1835	0	32877	
1836	0	32780	
1837	0	32688	
1838	0	32352	
1839	0	32156	
1840	0	31936	
1841	0	31956	
1842	0	32476	
1843	0	32776	
1844	0	32992	
1845	0	32932	
1846	0	33180	
1847	0	33220	
1848	0	33248	
1849	0	33052	
1850	0	33116	
1851	0	32884	
1852	0	32784	
1853	0	32588	
1854	0	32548	
1855	0	32436	
1856	0	32612	
1857	0	32744	
1858	0	32524	
1859	0	32468	
1860	0	32328	
1861	0	32324	
1862	0	32525	
1863	0	32984	
1864	0	33213	
1865	0	33209	
1866	0	33224	
1867	0	33064	
1868	0	33061	
1869	0	32868	
1870	0	32752	
1871	0	32716	
1872	0	32644	
1873	0	32588	
1874	0	32800	
1875	0	32964	
1876	0	32909	
1877	0	32880	
1878	0	32772	
1879	0	32708	
1880	0	32688	
1881	0	32544	
1882	0	32492	
1883	0	32420	
1884	0	32288	
1885	0	32272	
1886	0	32369	
1887	0	32688	
1888	0	32908	
1889	0	32919	
1890	0	32936	
1891	0	33036	
1892	0	33120	
1893	0	33128	
1894	0	32840	
1895	0	32732	
1896	0	32552	
1897	0	32440	
1898	0	32696	
1899	0	32888	
1900	0	33112	
1901	0	33022	
1902	0	32996	
1903	0	33140	
1904	0	33198	
1905	0	32920	
1906	0	32644	
1907	0	32900	
1908	0	33120	
1909	0	32780	
1910	0	32544	
1911	0	32740	
1912	0	32676	
1913	0	32524	
1914	0	32560	
1915	0	32364	
1916	0	32176	
1917	0	32276	
1918	0	32412	
1919	0	32680	
1920	0	32901	
1921	0	32912	
1922	0	32921	
1923	0	33253	
1924	0	33246	
1925	0	33290	
1926	0	33340	
1927	0	33096	
1928	0	32972	
1929	0	32852	
1930	0	32968	
1931	0	32672	
1932	0	32536	
1933	0	32816	
1934	0	32560	
1935	0	32324	
1936	0	32524	
1937	0	32680	
1938	0	32736	
1939	0	32808	
1940	0	32748	
1941	0	32732	
1942	0	32556	
1943	0	32416	
1944	0	32388	
1945	0	32552	
1946	0	32712	
1947	0	32668	
1948	0	32518	
1949	0	32676	
1950	0	32940	
1951	0	33088	
1952	0	33360	
1953	0	33300	
1954	0	33298	
1955	0	33305	
1956	0	33444	
1957	0	33260	
1958	0	32784	
1959	0	32604	
1960	0	32617	
1961	0	32428	
1962	0	32252	
1963	0	32500	
1964	0	32671	
1965	0	32517	
1966	0	32537	
1967	0	32712	
1968	0	32717	
1969	0	32568	
1970	0	32460	
1971	0	32444	
1972	0	32468	
1973	0	32452	
1974	0	32570	
1975	0	32784	
1976	0	33068	
1977	0	33332	
1978	0	33444	
1979	0	33428	
1980	0	33396	
1981	0	33044	
1982	0	32640	
1983	0	32584	
1984	0	32640	
1985	0	32540	
1986	0	32556	
1987	0	32536	
1988	0	32532	
1989	0	32472	
1990	0	32428	
1991	0	32780	
1992	0	32912	
1993	0	32628	
1994	0	32812	
1995	0	32710	
1996	0	32652	
1997	0	32628	
1998	0	32820	
1999	0	33000	
2000	0	33053	
2001	0	32984	
2002	0	32790	
2003	0	32856	
2004	0	32840	
2005	0	32700	
2006	0	32680	
2007	0	32592	
2008	0	32452	
2009	0	32560	
2010	0	32712	
2011	0	32692	
2012	0	33125	
2013	0	33774	
2014	0	33600	
2015	0	33198	
2016	0	33198	
2017	0	32964	
2018	0	32606	
2019	0	32572	
2020	0	32784	
2021	0	32593	
2022	0	32277	
2023	0	32280	
2024	0	32556	
2025	0	32780	
2026	0	32568	
2027	0	32556	
2028	0	32636	
2029	0	32623	
2030	0	32460	
2031	0	32383	
2032	0	32416	
2033	0	32616	
2034	0	32648	
2035	0	32764	
2036	0	32892	
2037	0	32905	
2038	0	33108	
2039	0	33440	
2040	0	33976	
2041	0	33828	
2042	0	33300	
2043	0	33104	
2044	0	33004	
2045	0	32902	
2046	0	32960	
2047	0	32596	
2048	0	32352	
2049	0	32140	
2050	0	32396	
2051	0	32448	
2052	0	32576	
2053	0	32512	
2054	0	32577	
2055	0	32613	
2056	0	32656	
2057	0	32620	
2058	0	32616	
2059	0	32716	
2060	0	32740	
2061	0	32940	
2062	0	33028	
2063	0	32770	
2064	0	32708	
2065	0	32676	
2066	0	32908	
2067	0	32924	
2068	0	32764	
2069	0	32636	
2070	0	32728	
2071	0	32620	
2072	0	32820	
2073	0	33040	
2074	0	33228	
2075	0	33012	
2076	0	33004	
2077	0	32884	
2078	0	33012	
2079	0	32828	
2080	0	32608	
2081	0	32576	
2082	0	32622	
2083	0	32648	
2084	0	32577	
2085	0	32568	
2086	0	32776	
2087	0	32720	
2088	0	32712	
2089	0	32644	
2090	0	32696	
2091	0	32784	
2092	0	32956	
2093	0	33168	
2094	0	32748	
2095	0	32529	
2096	0	32600	
2097	0	32472	
2098	0	32516	
2099	0	32737	
2100	0	32876	
2101	0	32997	
2102	0	33056	
2103	0	33148	
2104	0	33533	
2105	0	33468	
2106	0	32840	
2107	0	32596	
2108	0	32592	
2109	0	32716	
2110	0	32672	
2111	0	32545	
2112	0	32568	
2113	0	32668	
2114	0	32629	
2115	0	32588	
2116	0	32653	
2117	0	32612	
2118	0	32613	
2119	0	32740	
2120	0	32760	
2121	0	32652	
2122	0	32496	
2123	0	32612	
2124	0	32961	
2125	0	32984	
2126	0	33020	
2127	0	33240	
2128	0	33144	
2129	0	33060	
2130	0	32844	
2131	0	32656	
2132	0	32412	
2133	0	32344	
2134	0	32516	
2135	0	32612	
2136	0	32720	
2137	0	32960	
2138	0	33024	
2139	0	32844	
2140	0	32764	
2141	0	33120	
2142	0	33240	
2143	0	33433	
2144	0	33088	
2145	0	32844	
2146	0	32772	
2147	0	32592	
2148	0	32600	
2149	0	32484	
2150	0	32348	
2151	0	32324	
2152	0	32356	
2153	0	32336	
2154	0	32556	
2155	0	32692	
2156	0	32708	
2157	0	32736	
2158	0	32788	
2159	0	32972	
2160	0	32988	
2161	0	33006	
2162	0	33093	
2163	0	32976	
2164	0	32984	
2165	0	32917	
2166	0	33004	
2167	0	33044	
2168	0	32886	
2169	0	32669	
2170	0	32709	
2171	0	32672	
2172	0	32774	
2173	0	32860	
2174	0	33056	
2175	0	33040	
2176	0	32784	
2177	0	32620	
2178	0	32636	
2179	0	32608	
2180	0	32672	
2181	0	32684	
2182	0	32660	
2183	0	32720	
2184	0	32860	
2185	0	32880	
2186	0	32768	
2187	0	32592	
2188	0	32568	
2189	0	32596	
2190	0	32684	
2191	0	32792	
2192	0	32564	
2193	0	32527	
2194	0	32448	
2195	0	32448	
2196	0	32372	
2197	0	32597	
2198	0	32884	
2199	0	32984	
2200	0	33180	
2201	0	33420	
2202	0	33469	
2203	0	33376	
2204	0	33220	
2205	0	32721	
2206	0	32392	
2207	0	32572	
2208	0	32540	
2209	0	32344	
2210	0	32492	
2211	0	32752	
2212	0	32880	
2213	0	33128	
2214	0	32984	
2215	0	32860	
2216	0	32888	
2217	0	32868	
2218	0	32760	
2219	0	32704	
2220	0	32632	
2221	0	32508	
2222	0	32616	
2223	0	32852	
2224	0	32872	
2225	0	32996	
2226	0	32824	
2227	0	32572	
2228	0	32916	
2229	0	33118	
2230	0	33260	
2231	0	33064	
2232	0	32756	
2233	0	32684	
2234	0	32608	
2235	0	32620	
2236	0	32556	
2237	0	32560	
2238	0	32796	
2239	0	32856	
2240	0	32816	
2241	0	32752	
2242	0	32692	
2243	0	32844	
2244	0	32732	
2245	0	32616	
2246	0	32684	
2247	0	32676	
2248	0	32700	
2249	0	32956	
2250	0	32892	
2251	0	32852	
2252	0	32932	
2253	0	32880	
2254	0	32901	
2255	0	32805	
2256	0	32676	
2257	0	32644	
2258	0	32456	
2259	0	32356	
2260	0	32356	
2261	0	32412	
2262	0	32508	
2263	0	33092	
2264	0	33308	
2265	0	33169	
2266	0	33112	
2267	0	33092	
2268	0	32886	
2269	0	33304	
2270	0	33248	
2271	0	33022	
2272	0	32780	
2273	0	32600	
2274	0	32400	
2275	0	32240	
2276	0	32592	
2277	0	32428	
2278	0	32492	
2279	0	32612	
2280	0	32814	
2281	0	33000	
2282	0	33152	
2283	0	33016	
2284	0	32992	
2285	0	32700	
2286	0	32684	
2287	0	32732	
2288	0	32537	
2289	0	32504	
2290	0	32520	
2291	0	32529	
2292	0	32420	
2293	0	32328	
2294	0	32488	
2295	0	32804	
2296	0	33228	
2297	0	33300	
2298	0	33304	
2299	0	33286	
2300	0	33056	
2301	0	32956	
2302	0	32784	
2303	0	32608	
2304	0	32696	
2305	0	33040	
2306	0	33116	
2307	0	32916	
2308	0	32616	
2309	0	32501	
2310	0	32549	
2311	0	32538	
2312	0	32669	
2313	0	32637	
2314	0	32596	
2315	0	32792	
2316	0	32820	
2317	0	32744	
2318	0	32812	
2319	0	32988	
2320	0	32993	
2321	0	32813	
2322	0	32637	
2323	0	32624	
2324	0	32544	
2325	0	32608	
2326	0	32629	
2327	0	32668	
2328	0	32624	
2329	0	32644	
2330	0	32724	
2331	0	33312	
2332	0	33492	
2333	0	33216	
2334	0	32877	
2335	0	32760	
2336	0	32704	
2337	0	32684	
2338	0	32461	
2339	0	32476	
2340	0	32492	
2341	0	32541	
2342	0	32417	
2343	0	32404	
2344	0	32696	
2345	0	33124	
2346	0	33332	
2347	0	33252	
2348	0	33254	
2349	0	33208	
2350	0	33024	
2351	0	32968	
2352	0	33224	
2353	0	32888	
2354	0	32404	
2355	0	32232	
2356	0	32254	
2357	0	32492	
2358	0	32764	
2359	0	32976	
2360	0	32960	
2361	0	32912	
2362	0	32816	
2363	0	32800	
2364	0	32924	
2365	0	32672	
2366	0	32644	
2367	0	32384	
2368	0	32452	
2369	0	32800	
2370	0	32886	
2371	0	32800	
2372	0	32676	
2373	0	32456	
2374	0	32512	
2375	0	32777	
2376	0	32869	
2377	0	32680	
2378	0	32688	
2379	0	32808	
2380	0	32936	
2381	0	33020	
2382	0	32952	
2383	0	32980	
2384	0	33208	
2385	0	33228	
2386	0	32997	
2387	0	33094	
2388	0	32844	
2389	0	32652	
2390	0	32564	
2391	0	32660	
2392	0	32556	
2393	0	32240	
2394	0	32080	
2395	0	32172	
2396	0	32294	
2397	0	32716	
2398	0	32960	
2399	0	32940	
2400	0	33192	
2401	0	33468	
2402	0	33702	
2403	0	33444	
2404	0	32966	
2405	0	32848	
2406	0	33036	
2407	0	33128	
2408	0	32576	
2409	0	32320	
2410	0	32181	
2411	0	32388	
2412	0	32328	
2413	0	32260	
2414	0	32416	
2415	0	32628	
2416	0	32928	
2417	0	33100	
2418	0	32956	
2419	0	33016	
2420	0	32984	
2421	0	32832	
2422	0	32952	
2423	0	33012	
2424	0	32784	
2425	0	32696	
2426	0	32712	
2427	0	32644	
2428	0	32848	
2429	0	32988	
2430	0	32938	
2431	0	32857	
2432	0	32728	
2433	0	32648	
2434	0	32936	
2435	0	32884	
2436	0	32684	
2437	0	32568	
2438	0	32520	
2439	0	32300	
2440	0	32348	
2441	0	32636	
2442	0	32861	
2443	0	32774	
2444	0	32768	
2445	0	32597	
2446	0	32812	
2447	0	32968	
2448	0	33156	
2449	0	33556	
2450	0	33268	
2451	0	32860	
2452	0	32356	
2453	0	32496	
2454	0	32752	
2455	0	33000	
2456	0	32876	
2457	0	32836	
2458	0	32448	
2459	0	32360	
2460	0	32688	
2461	0	33104	
2462	0	32736	
2463	0	32696	
2464	0	32728	
2465	0	32892	
2466	0	32872	
2467	0	32916	
2468	0	33044	
2469	0	32904	
2470	0	33016	
2471	0	33148	
2472	0	32520	
2473	0	32096	
2474	0	32096	
2475	0	32460	
2476	0	32680	
2477	0	32732	
2478	0	33116	
2479	0	33044	
2480	0	32764	
2481	0	32876	
2482	0	32900	
2483	0	32964	
2484	0	32960	
2485	0	33148	
2486	0	33104	
2487	0	32992	
2488	0	32988	
2489	0	33084	
2490	0	32676	
2491	0	32422	
2492	0	32429	
2493	0	32356	
2494	0	32228	
2495	0	32352	
2496	0	32760	
2497	0	32556	
2498	0	32654	
2499	0	32716	
2500	0	32570	
2501	0	32484	
2502	0	32374	
2503	0	32688	
2504	0	33080	
2505	0	33344	
2506	0	33406	
2507	0	33688	
2508	0	33485	
2509	0	33040	
2510	0	32792	
2511	0	32888	
2512	0	32692	
2513	0	32620	
2514	0	32684	
2515	0	32756	
2516	0	32704	
2517	0	32628	
2518	0	32516	
2519	0	32372	
2520	0	32508	
2521	0	32612	
2522	0	32553	
2523	0	32572	
2524	0	32616	
2525	0	32813	
2526	0	32844	
2527	0	32816	
2528	0	32893	
2529	0	32756	
2530	0	32664	
2531	0	32636	
2532	0	32576	
2533	0	32648	
2534	0	32840	
2535	0	32604	
2536	0	32740	
2537	0	33040	
2538	0	33298	
2539	0	33180	
2540	0	33262	
2541	0	33472	
2542	0	33160	
2543	0	32820	
2544	0	32616	
2545	0	32640	
2546	0	32524	
2547	0	32524	
2548	0	32440	
2549	0	32424	
2550	0	32264	
2551	0	32368	
2552	0	32268	
2553	0	32464	
2554	0	32940	
2555	0	33292	
2556	0	33256	
2557	0	33420	
2558	0	33504	
2559	0	33196	
2560	0	32840	
2561	0	32900	
2562	0	32574	
2563	0	32564	
2564	0	32536	
2565	0	32356	
2566	0	32516	
2567	0	32552	
2568	0	32548	
2569	0	32620	
2570	0	32868	
2571	0	32702	
2572	0	32556	
2573	0	33041	
2574	0	33340	
2575	0	32988	
2576	0	32836	
2577	0	32856	
2578	0	32876	
2579	0	32804	
2580	0	32600	
2581	0	32412	
2582	0	32568	
2583	0	32676	
2584	0	32668	
2585	0	32816	
2586	0	32748	
2587	0	32728	
2588	0	32676	
2589	0	32804	
2590	0	33050	
2591	0	33536	
2592	0	33336	
2593	0	32734	
2594	0	32388	
2595	0	32400	
2596	0	32438	
2597	0	32444	
2598	0	32420	
2599	0	32436	
2600	0	32762	
2601	0	33348	
2602	0	33684	
2603	0	33256	
2604	0	32716	
2605	0	32480	
2606	0	32680	
2607	0	32868	
2608	0	33036	
2609	0	33000	
2610	0	33004	
2611	0	33204	
2612	0	33040	
2613	0	32884	
2614	0	32660	
2615	0	32454	
2616	0	32390	
2617	0	32448	
2618	0	32592	
2619	0	32540	
2620	0	32568	
2621	0	32524	
2622	0	32824	
2623	0	32720	
2624	0	32528	
2625	0	32701	
2626	0	32868	
2627	0	32992	
2628	0	32948	
2629	0	32864	
2630	0	32900	
2631	0	32900	
2632	0	32936	
2633	0	32764	
2634	0	32608	
2635	0	32612	
2636	0	32836	
2637	0	32912	
2638	0	33031	
2639	0	33000	
2640	0	33060	
2641	0	32988	
2642	0	32928	
2643	0	32932	
2644	0	32596	
2645	0	32464	
2646	0	32416	
2647	0	32341	
2648	0	32420	
2649	0	32392	
2650	0	32556	
2651	0	32760	
2652	0	33124	
2653	0	32960	
2654	0	32672	
2655	0	32676	
2656	0	32896	
2657	0	32956	
2658	0	33066	
2659	0	33260	
2660	0	33236	
2661	0	32944	
2662	0	32820	
2663	0	32728	
2664	0	32564	
2665	0	32488	
2666	0	32568	
2667	0	32744	
2668	0	32780	
2669	0	32592	
2670	0	32628	
2671	0	32736	
2672	0	32612	
2673	0	32620	
2674	0	32630	
2675	0	32624	
2676	0	32608	
2677	0	32476	
2678	0	32532	
2679	0	32812	
2680	0	33276	
2681	0	33048	
2682	0	32788	
2683	0	33220	
2684	0	33776	
2685	0	33752	
2686	0	33517	
2687	0	33084	
2688	0	32592	
2689	0	32504	
2690	0	32744	
2691	0	32792	
2692	0	32416	
2693	0	31940	
2694	0	32076	
2695	0	32360	
2696	0	32408	
2697	0	32612	
2698	0	32641	
2699	0	32640	
2700	0	32592	
2701	0	32617	
2702	0	32804	
2703	0	33082	
2704	0	33305	
2705	0	33276	
2706	0	32808	
2707	0	32812	
2708	0	32700	
2709	0	32752	
2710	0	32920	
2711	0	32704	
2712	0	32640	
2713	0	32488	
2714	0	32676	
2715	0	32828	
2716	0	32944	
2717	0	33168	
2718	0	33044	
2719	0	33048	
2720	0	32992	
2721	0	33047	
2722	0	32824	
2723	0	32672	
2724	0	32576	
2725	0	32548	
2726	0	32420	
2727	0	32425	
2728	0	32526	
2729	0	32816	
2730	0	32856	
2731	0	32824	
2732	0	32820	
2733	0	32868	
2734	0	32856	
2735	0	32768	
2736	0	32740	
2737	0	32734	
2738	0	32732	
2739	0	32716	
2740	0	32733	
2741	0	32756	
2742	0	32960	
2743	0	32924	
2744	0	32808	
2745	0	32784	
2746	0	32848	
2747	0	32920	
2748	0	32726	
2749	0	32654	
2750	0	32732	
2751	0	32828	
2752	0	32772	
2753	0	32728	
2754	0	32964	
2755	0	33157	
2756	0	32808	
2757	0	32512	
2758	0	32525	
2759	0	32696	
2760	0	32617	
2761	0	32628	
2762	0	32604	
2763	0	32668	
2764	0	32824	
2765	0	32668	
2766	0	32616	
2767	0	32669	
2768	0	32721	
2769	0	32952	
2770	0	32992	
2771	0	33052	
2772	0	33212	
2773	0	33060	
2774	0	33108	
2775	0	33116	
2776	0	32884	
2777	0	32734	
2778	0	32452	
2779	0	32432	
2780	0	32452	
2781	0	32536	
2782	0	32640	
2783	0	32832	
2784	0	32992	
2785	0	32828	
2786	0	32734	
2787	0	32629	
2788	0	32612	
2789	0	32884	
2790	0	32804	
2791	0	32824	
2792	0	32744	
2793	0	32645	
2794	0	32608	
2795	0	32524	
2796	0	32608	
2797	0	32540	
2798	0	32656	
2799	0	32801	
2800	0	32788	
2801	0	32864	
2802	0	33088	
2803	0	33158	
2804	0	33270	
2805	0	33120	
2806	0	33112	
2807	0	33072	
2808	0	32748	
2809	0	32512	
2810	0	32540	
2811	0	32340	
2812	0	32508	
2813	0	32704	
2814	0	32696	
2815	0	33022	
2816	0	32936	
2817	0	33044	
2818	0	33040	
2819	0	32928	
2820	0	32852	
2821	0	32537	
2822	0	32533	
2823	0	32572	
2824	0	32740	
2825	0	32788	
2826	0	32680	
2827	0	32400	
2828	0	32878	
2829	0	32824	
2830	0	32992	
2831	0	33220	
2832	0	33241	
2833	0	32816	
2834	0	32812	
2835	0	32652	
2836	0	32636	
2837	0	32596	
2838	0	32760	
2839	0	32572	
2840	0	32244	
2841	0	32456	
2842	0	32604	
2843	0	32677	
2844	0	32992	
2845	0	33112	
2846	0	32940	
2847	0	32816	
2848	0	32928	
2849	0	33045	
2850	0	32920	
2851	0	32992	
2852	0	32992	
2853	0	32564	
2854	0	32908	
2855	0	32968	
2856	0	33248	
2857	0	32752	
2858	0	32548	
2859	0	32780	
2860	0	32656	
2861	0	32606	
2862	0	32588	
2863	0	32576	
2864	0	32544	
2865	0	32604	
2866	0	32720	
2867	0	32684	
2868	0	32632	
2869	0	32828	
2870	0	32704	
2871	0	32800	
2872	0	32648	
2873	0	32430	
2874	0	32364	
2875	0	32644	
2876	0	32844	
2877	0	32952	
2878	0	33184	
2879	0	33436	
2880	0	33584	
2881	0	33660	
2882	0	33336	
2883	0	32748	
2884	0	32300	
2885	0	32432	
2886	0	32628	
2887	0	32580	
2888	0	32560	
2889	0	32512	
2890	0	32641	
2891	0	32536	
2892	0	32304	
2893	0	32311	
2894	0	32524	
2895	0	32505	
2896	0	32556	
2897	0	32564	
2898	0	32620	
2899	0	32784	
2900	0	33056	
2901	0	33200	
2902	0	33244	
2903	0	33045	
2904	0	32952	
2905	0	33100	
2906	0	33052	
2907	0	33044	
2908	0	33092	
2909	0	32952	
2910	0	32830	
2911	0	32764	
2912	0	32976	
2913	0	32996	
2914	0	32828	
2915	0	32624	
2916	0	32564	
2917	0	32480	
2918	0	32620	
2919	0	32700	
2920	0	32688	
2921	0	32572	
2922	0	32400	
2923	0	32328	
2924	0	32432	
2925	0	32640	
2926	0	32796	
2927	0	32928	
2928	0	32908	
2929	0	33140	
2930	0	33036	
2931	0	32964	
2932	0	32916	
2933	0	33052	
2934	0	32892	
2935	0	32852	
2936	0	32936	
2937	0	32720	
2938	0	32836	
2939	0	32812	
2940	0	32504	
2941	0	32340	
2942	0	32412	
2943	0	32600	
2944	0	32908	
2945	0	33242	
2946	0	33100	
2947	0	32908	
2948	0	32792	
2949	0	32808	
2950	0	32728	
2951	0	32676	
2952	0	32604	
2953	0	32578	
2954	0	32649	
2955	0	32644	
2956	0	32624	
2957	0	32544	
2958	0	32528	
2959	0	32736	
2960	0	32660	
2961	0	32647	
2962	0	32696	
2963	0	32984	
2964	0	32900	
2965	0	32805	
2966	0	32868	
2967	0	33006	
2968	0	33172	
2969	0	33428	
2970	0	33168	
2971	0	32784	
2972	0	32568	
2973	0	32568	
2974	0	32704	
2975	0	32460	
2976	0	32388	
2977	0	32592	
2978	0	32780	
2979	0	32812	
2980	0	32836	
2981	0	32829	
2982	0	32888	
2983	0	32793	
2984	0	32872	
2985	0	32880	
2986	0	32860	
2987	0	32696	
2988	0	32661	
2989	0	32804	
2990	0	32816	
2991	0	32836	
2992	0	32852	
2993	0	32773	
2994	0	32848	
2995	0	33124	
2996	0	32868	
2997	0	32776	
2998	0	32820	
2999	0	32688	
3000	0	32472	
3001	0	32668	
3002	0	32669	
3003	0	32800	
3004	0	32744	
3005	0	32804	
3006	0	32700	
3007	0	32780	
3008	0	32972	
3009	0	33116	
3010	0	32900	
3011	0	32748	
3012	0	32808	
3013	0	32464	
3014	0	32606	
3015	0	32404	
3016	0	32372	
3017	0	32600	
3018	0	32916	
3019	0	32824	
3020	0	32816	
3021	0	32932	
3022	0	33144	
3023	0	33018	
3024	0	32978	
3025	0	33052	
3026	0	32980	
3027	0	32868	
3028	0	32816	
3029	0	32748	
3030	0	32654	
3031	0	32756	
3032	0	32944	
3033	0	32748	
3034	0	32476	
3035	0	32536	
3036	0	32600	
3037	0	32708	
3038	0	32488	
3039	0	32396	
3040	0	32544	
3041	0	32736	
3042	0	32732	
3043	0	32884	
3044	0	33144	
3045	0	33732	
3046	0	33510	
3047	0	32828	
3048	0	32684	
3049	0	32860	
3050	0	32644	
3051	0	32408	
3052	0	32328	
3053	0	32536	
3054	0	32808	
3055	0	33036	
3056	0	32928	
3057	0	32684	
3058	0	32780	
3059	0	32916	
3060	0	33109	
3061	0	33156	
3062	0	33156	
3063	0	32903	
3064	0	32560	
3065	0	32336	
3066	0	32160	
3067	0	32212	
3068	0	32304	
3069	0	32712	
3070	0	32704	
3071	0	32568	
3072	0	32772	
3073	0	32860	
3074	0	33208	
3075	0	33470	
3076	0	32944	
3077	0	33156	
3078	0	32964	
3079	0	32832	
3080	0	32760	
3081	0	32772	
3082	0	32713	
3083	0	32745	
3084	0	32748	
3085	0	32934	
3086	0	32832	
3087	0	32644	
3088	0	32877	
3089	0	33188	
3090	0	33004	
3091	0	32528	
3092	0	32428	
3093	0	32496	
3094	0	32600	
3095	0	32680	
3096	0	32620	
3097	0	32624	
3098	0	32448	
3099	0	32288	
3100	0	32516	
3101	0	32701	
3102	0	32760	
3103	0	32856	
3104	0	32996	
3105	0	33156	
3106	0	33024	
3107	0	32952	
3108	0	33172	
3109	0	32972	
3110	0	32956	
3111	0	33056	
3112	0	32816	
3113	0	32596	
3114	0	32452	
3115	0	32644	
3116	0	32604	
3117	0	32604	
3118	0	32599	
3119	0	32716	
3120	0	32796	
3121	0	32976	
3122	0	32918	
3123	0	33065	
3124	0	33036	
3125	0	32932	
3126	0	32700	
3127	0	32624	
3128	0	32660	
3129	0	32932	
3130	0	32820	
3131	0	32820	
3132	0	32612	
3133	0	32608	
3134	0	32460	
3135	0	32677	
3136	0	32600	
3137	0	32680	
3138	0	32860	
3139	0	33192	
3140	0	33240	
3141	0	33000	
3142	0	32558	
3143	0	32620	
3144	0	32624	
3145	0	32840	
3146	0	32788	
3147	0	32541	
3148	0	32548	
3149	0	33308	
3150	0	33248	
3151	0	33044	
3152	0	33100	
3153	0	32889	
3154	0	32552	
3155	0	32349	
3156	0	32356	
3157	0	32612	
3158	0	32684	
3159	0	32520	
3160	0	32597	
3161	0	32720	
3162	0	32680	
3163	0	32796	
3164	0	32716	
3165	0	32544	
3166	0	32764	
3167	0	33096	
3168	0	33088	
3169	0	32965	
3170	0	32924	
3171	0	32944	
3172	0	32836	
3173	0	32888	
3174	0	32848	
3175	0	32692	
3176	0	32696	
3177	0	32600	
3178	0	32690	
3179	0	32668	
3180	0	32756	
3181	0	32708	
3182	0	32696	
3183	0	32536	
3184	0	32608	
3185	0	32672	
3186	0	32668	
3187	0	32620	
3188	0	32460	
3189	0	32704	
3190	0	32996	
3191	0	33120	
3192	0	33132	
3193	0	33296	
3194	0	33380	
3195	0	33240	
3196	0	33148	
3197	0	32908	
3198	0	32616	
3199	0	32396	
3200	0	32336	
3201	0	32672	
3202	0	32420	
3203	0	32524	
3204	0	32716	
3205	0	32761	
3206	0	32688	
3207	0	32633	
3208	0	32724	
3209	0	32952	
3210	0	32780	
3211	0	32892	
3212	0	33024	
3213	0	32832	
3214	0	32949	
3215	0	32972	
3216	0	32548	
3217	0	32472	
3218	0	32493	
3219	0	32648	
3220	0	32444	
3221	0	32481	
3222	0	32708	
3223	0	32965	
3224	0	33548	
3225	0	33564	
3226	0	33388	
3227	0	33317	
3228	0	33216	
3229	0	32772	
3230	0	32500	
3231	0	32476	
3232	0	32404	
3233	0	32196	
3234	0	32424	
3235	0	32372	
3236	0	32400	
3237	0	32492	
3238	0	32640	
3239	0	32740	
3240	0	32912	
3241	0	32871	
3242	0	32828	
3243	0	32828	
3244	0	32892	
3245	0	32970	
3246	0	32908	
3247	0	32933	
3248	0	32774	
3249	0	32804	
3250	0	32796	
3251	0	32700	
3252	0	32433	
3253	0	32432	
3254	0	32644	
3255	0	32728	
3256	0	32728	
3257	0	32804	
3258	0	32926	
3259	0	32872	
3260	0	32728	
3261	0	32964	
3262	0	32988	
3263	0	32708	
3264	0	32590	
3265	0	32756	
3266	0	32929	
3267	0	32976	
3268	0	32912	
3269	0	32668	
3270	0	32464	
3271	0	32540	
3272	0	32628	
3273	0	32808	
3274	0	32824	
3275	0	32625	
3276	0	32664	
3277	0	32712	
3278	0	33014	
3279	0	33340	
3280	0	33364	
3281	0	33112	
3282	0	33032	
3283	0	32957	
3284	0	32544	
3285	0	32524	
3286	0	32612	
3287	0	32588	
3288	0	32548	
3289	0	32676	
3290	0	32952	
3291	0	33004	
3292	0	33012	
3293	0	32964	
3294	0	32641	
3295	0	32352	
3296	0	32268	
3297	0	32517	
3298	0	32604	
3299	0	32817	
3300	0	33073	
3301	0	33000	
3302	0	32920	
3303	0	32708	
3304	0	32700	
3305	0	32672	
3306	0	32721	
3307	0	32620	
3308	0	32464	
3309	0	32492	
3310	0	32504	
3311	0	32752	
3312	0	33072	
3313	0	33004	
3314	0	33232	
3315	0	33592	
3316	0	33646	
3317	0	33176	
3318	0	32788	
3319	0	32652	
3320	0	32448	
3321	0	32326	
3322	0	32360	
3323	0	32424	
3324	0	32616	
3325	0	32728	
3326	0	32756	
3327	0	32868	
3328	0	32813	
3329	0	32680	
3330	0	32528	
3331	0	32460	
3332	0	32828	
3333	0	32814	
3334	0	32696	
3335	0	32820	
3336	0	32916	
3337	0	32868	
3338	0	32852	
3339	0	32804	
3340	0	32740	
3341	0	32852	
3342	0	32676	
3343	0	32420	
3344	0	32588	
3345	0	32630	
3346	0	32948	
3347	0	32880	
3348	0	32956	
3349	0	33084	
3350	0	33398	
3351	0	33388	
3352	0	33096	
3353	0	32812	
3354	0	32756	
3355	0	32736	
3356	0	32748	
3357	0	32624	
3358	0	32396	
3359	0	32352	
3360	0	32420	
3361	0	32496	
3362	0	32700	
3363	0	32740	
3364	0	32673	
3365	0	32720	
3366	0	32732	
3367	0	32864	
3368	0	32808	
3369	0	33052	
3370	0	33188	
3371	0	33060	
3372	0	32820	
3373	0	32680	
3374	0	32670	
3375	0	32428	
3376	0	32400	
3377	0	32532	
3378	0	32520	
3379	0	32776	
3380	0	32996	
3381	0	32704	
3382	0	32750	
3383	0	32780	
3384	0	32964	
3385	0	32996	
3386	0	33052	
3387	0	32988	
3388	0	32756	
3389	0	32820	
3390	0	32888	
3391	0	32568	
3392	0	32596	
3393	0	32672	
3394	0	32556	
3395	0	32580	
3396	0	32784	
3397	0	32772	
3398	0	32952	
3399	0	32836	
3400	0	32798	
3401	0	32840	
3402	0	32864	
3403	0	32876	
3404	0	32768	
3405	0	32904	
3406	0	32988	
3407	0	33340	
3408	0	33100	
3409	0	32620	
3410	0	32828	
3411	0	33172	
3412	0	32896	
3413	0	32456	
3414	0	32636	
3415	0	32656	
3416	0	32524	
3417	0	32372	
3418	0	32464	
3419	0	32652	
3420	0	32728	
3421	0	32768	
3422	0	32672	
3423	0	32768	
3424	0	33028	
3425	0	33072	
3426	0	32698	
3427	0	32676	
3428	0	33016	
3429	0	33189	
3430	0	32884	
3431	0	32788	
3432	0	32620	
3433	0	32448	
3434	0	32404	
3435	0	32592	
3436	0	32706	
3437	0	32728	
3438	0	32812	
3439	0	32828	
3440	0	33088	
3441	0	33020	
3442	0	32804	
3443	0	32764	
3444	0	32744	
3445	0	32740	
3446	0	32696	
3447	0	32508	
3448	0	32692	
3449	0	32920	
3450	0	32828	
3451	0	32653	
3452	0	32820	
3453	0	32848	
3454	0	32876	
3455	0	32876	
3456	0	32868	
3457	0	32724	
3458	0	32628	
3459	0	32712	
3460	0	32756	
3461	0	32836	
3462	0	32896	
3463	0	32864	
3464	0	32704	
3465	0	32813	
3466	0	32636	
3467	0	32612	
3468	0	32480	
3469	0	32508	
3470	0	32604	
3471	0	32644	
3472	0	32756	
3473	0	32744	
3474	0	32860	
3475	0	32868	
3476	0	32704	
3477	0	32732	
3478	0	32876	
3479	0	32868	
3480	0	33000	
3481	0	33384	
3482	0	33640	
3483	0	33412	
3484	0	33192	
3485	0	32901	
3486	0	32708	
3487	0	32488	
3488	0	32616	
3489	0	32684	
3490	0	32448	
3491	0	32568	
3492	0	32469	
3493	0	32484	
3494	0	32700	
3495	0	32576	
3496	0	32497	
3497	0	32336	
3498	0	32236	
3499	0	32372	
3500	0	32572	
3501	0	32709	
3502	0	32716	
3503	0	32672	
3504	0	32980	
3505	0	33741	
3506	0	34028	
3507	0	33256	
3508	0	33388	
3509	0	33045	
3510	0	32672	
3511	0	32456	
3512	0	32280	
3513	0	32100	
3514	0	32228	
3515	0	32454	
3516	0	32492	
3517	0	32672	
3518	0	32788	
3519	0	33196	
3520	0	33316	
3521	0	33268	
3522	0	33056	
3523	0	32944	
3524	0	32876	
3525	0	32720	
3526	0	32604	
3527	0	32460	
3528	0	32480	
3529	0	32576	
3530	0	32480	
3531	0	32364	
3532	0	32374	
3533	0	32448	
3534	0	32704	
3535	0	33356	
3536	0	33188	
3537	0	32928	
3538	0	33244	
3539	0	33613	
3540	0	33134	
3541	0	32896	
3542	0	33021	
3543	0	32888	
3544	0	32837	
3545	0	32663	
3546	0	32740	
3547	0	32648	
3548	0	32568	
3549	0	32529	
3550	0	32556	
3551	0	32628	
3552	0	32460	
3553	0	32564	
3554	0	32636	
3555	0	32660	
3556	0	32669	
3557	0	32654	
3558	0	32752	
3559	0	32732	
3560	0	32884	
3561	0	32900	
3562	0	32868	
3563	0	32749	
3564	0	32820	
3565	0	32749	
3566	0	32480	
3567	0	32624	
3568	0	32704	
3569	0	32920	
3570	0	33076	
3571	0	33116	
3572	0	32932	
3573	0	32778	
3574	0	32728	
3575	0	32736	
3576	0	32792	
3577	0	33120	
3578	0	32964	
3579	0	32708	
3580	0	32736	
3581	0	32693	
3582	0	32732	
3583	0	32684	
3584	0	32652	
3585	0	32536	
3586	0	32684	
3587	0	32889	
3588	0	32804	
3589	0	32840	
3590	0	32758	
3591	0	32736	
3592	0	32908	
3593	0	32832	
3594	0	32772	
3595	0	32568	
3596	0	32528	
3597	0	32607	
3598	0	32758	
3599	0	32800	
3600	0	32656	
3601	0	32680	
3602	0	32924	
3603	0	33109	
3604	0	32940	
3605	0	32884	
3606	0	33068	
3607	0	33391	
3608	0	33212	
3609	0	32812	
3610	0	32532	
3611	0	32350	
3612	0	32204	
3613	0	32192	
3614	0	32462	
3615	0	32492	
3616	0	32696	
3617	0	32868	
3618	0	33004	
3619	0	33236	
3620	0	33220	
3621	0	33300	
3622	0	33309	
3623	0	33196	
3624	0	32865	
3625	0	32584	
3626	0	32665	
3627	0	32684	
3628	0	32528	
3629	0	32568	
3630	0	32669	
3631	0	32612	
3632	0	32548	
3633	0	32744	
3634	0	32766	
3635	0	32908	
3636	0	32672	
3637	0	32620	
3638	0	32640	
3639	0	32592	
3640	0	32596	
3641	0	32672	
3642	0	32636	
3643	0	32652	
3644	0	32788	
3645	0	32688	
3646	0	32656	
3647	0	32708	
3648	0	32660	
3649	0	32768	
3650	0	32576	
3651	0	32700	
3652	0	33012	
3653	0	32880	
3654	0	32956	
3655	0	33096	
3656	0	33232	
3657	0	33007	
3658	0	33309	
3659	0	33192	
3660	0	33120	
3661	0	33232	
3662	0	33156	
3663	0	32988	
3664	0	32600	
3665	0	32476	
3666	0	32516	
3667	0	32480	
3668	0	32580	
3669	0	32628	
3670	0	32604	
3671	0	32508	
3672	0	32528	
3673	0	32768	
3674	0	32848	
3675	0	32856	
3676	0	32524	
3677	0	32412	
3678	0	32500	
3679	0	32656	
3680	0	32757	
3681	0	32700	
3682	0	32696	
3683	0	32766	
3684	0	33112	
3685	0	33288	
3686	0	33292	
3687	0	33029	
3688	0	32800	
3689	0	32588	
3690	0	32848	
3691	0	32804	
3692	0	32688	
3693	0	32746	
3694	0	32784	
3695	0	32884	
3696	0	32872	
3697	0	32764	
3698	0	32772	
3699	0	32860	
3700	0	32958	
3701	0	32672	
3702	0	32360	
3703	0	32420	
3704	0	32460	
3705	0	32662	
3706	0	32828	
3707	0	32928	
3708	0	32597	
3709	0	32389	
3710	0	32516	
3711	0	33152	
3712	0	33284	
3713	0	33096	
3714	0	32877	
3715	0	32996	
3716	0	33040	
3717	0	32844	
3718	0	32748	
3719	0	32864	
3720	0	32832	
3721	0	32804	
3722	0	32853	
3723	0	32612	
3724	0	32412	
3725	0	32709	
3726	0	33092	
3727	0	33124	
3728	0	32916	
3729	0	32882	
3730	0	32652	
3731	0	32510	
3732	0	32424	
3733	0	32420	
3734	0	32244	
3735	0	32368	
3736	0	32664	
3737	0	32492	
3738	0	32437	
3739	0	32672	
3740	0	32852	
3741	0	32832	
3742	0	33156	
3743	0	33400	
3744	0	33436	
3745	0	33613	
3746	0	33316	
3747	0	33072	
3748	0	33060	
3749	0	32878	
3750	0	32644	
3751	0	32560	
3752	0	32557	
3753	0	32436	
3754	0	32392	
3755	0	32508	
3756	0	32516	
3757	0	32728	
3758	0	32764	
3759	0	32740	
3760	0	32600	
3761	0	32456	
3762	0	32636	
3763	0	32588	
3764	0	32480	
3765	0	32638	
3766	0	32892	
3767	0	32968	
3768	0	33104	
3769	0	32993	
3770	0	32961	
3771	0	32836	
3772	0	32798	
3773	0	32980	
3774	0	32932	
3775	0	33032	
3776	0	33048	
3777	0	32903	
3778	0	32584	
3779	0	32484	
3780	0	32480	
3781	0	32496	
3782	0	32560	
3783	0	32582	
3784	0	32645	
3785	0	32629	
3786	0	32572	
3787	0	32488	
3788	0	32592	
3789	0	32840	
3790	0	33100	
3791	0	33184	
3792	0	32992	
3793	0	32840	
3794	0	32918	
3795	0	32772	
3796	0	32732	
3797	0	32840	
3798	0	32948	
3799	0	32916	
3800	0	32778	
3801	0	32860	
3802	0	32916	
3803	0	32810	
3804	0	32608	
3805	0	32556	
3806	0	32480	
3807	0	32556	
3808	0	32660	
3809	0	32584	
3810	0	32656	
3811	0	32940	
3812	0	32764	
3813	0	32444	
3814	0	33060	
3815	0	33548	
3816	0	33260	
3817	0	32772	
3818	0	32596	
3819	0	32524	
3820	0	32892	
3821	0	32788	
3822	0	33120	
3823	0	33388	
3824	0	33096	
3825	0	32788	
3826	0	32704	
3827	0	32536	
3828	0	32396	
3829	0	32444	
3830	0	32348	
3831	0	32660	
3832	0	32632	
3833	0	32676	
3834	0	32836	
3835	0	32940	
3836	0	32748	
3837	0	32813	
3838	0	32788	
3839	0	32776	
3840	0	32740	
3841	0	32768	
3842	0	32628	
3843	0	32525	
3844	0	32744	
3845	0	32928	
3846	0	32984	
3847	0	33000	
3848	0	32844	
3849	0	32796	
3850	0	32816	
3851	0	32825	
3852	0	32776	
3853	0	32824	
3854	0	32828	
3855	0	32780	
3856	0	32788	
3857	0	32892	
3858	0	32629	
3859	0	32684	
3860	0	32662	
3861	0	32557	
3862	0	32580	
3863	0	32509	
3864	0	32452	
3865	0	32334	
3866	0	32340	
3867	0	32892	
3868	0	33076	
3869	0	33008	
3870	0	33122	
3871	0	33056	
3872	0	33180	
3873	0	33288	
3874	0	33678	
3875	0	33492	
3876	0	32788	
3877	0	32772	
3878	0	32552	
3879	0	32473	
3880	0	32508	
3881	0	32232	
3882	0	32418	
3883	0	32792	
3884	0	32832	
3885	0	32809	
3886	0	32736	
3887	0	32805	
3888	0	32704	
3889	0	32768	
3890	0	32828	
3891	0	32700	
3892	0	32608	
3893	0	32685	
3894	0	32685	
3895	0	32808	
3896	0	32708	
3897	0	32612	
3898	0	32876	
3899	0	32856	
3900	0	32804	
3901	0	32712	
3902	0	32720	
3903	0	32548	
3904	0	32888	
3905	0	33142	
3906	0	33060	
3907	0	32880	
3908	0	32696	
3909	0	32501	
3910	0	32692	
3911	0	32772	
3912	0	32764	
3913	0	32636	
3914	0	32740	
3915	0	32922	
3916	0	33004	
3917	0	32844	
3918	0	32804	
3919	0	32887	
3920	0	33188	
3921	0	32892	
3922	0	32652	
3923	0	32588	
3924	0	32520	
3925	0	32436	
3926	0	32640	
3927	0	32624	
3928	0	33072	
3929	0	33060	
3930	0	32804	
3931	0	32532	
3932	0	32736	
3933	0	32804	
3934	0	32532	
3935	0	32424	
3936	0	32320	
3937	0	32716	
3938	0	32924	
3939	0	32996	
3940	0	33142	
3941	0	33024	
3942	0	33104	
3943	0	32946	
3944	0	32876	
3945	0	32956	
3946	0	33005	
3947	0	32737	
3948	0	32672	
3949	0	32868	
3950	0	33092	
3951	0	32876	
3952	0	32704	
3953	0	32640	
3954	0	32664	
3955	0	32862	
3956	0	32760	
3957	0	32696	
3958	0	32636	
3959	0	32584	
3960	0	32792	
3961	0	32760	
3962	0	32684	
3963	0	32500	
3964	0	32644	
3965	0	32672	
3966	0	32500	
3967	0	32548	
3968	0	32868	
3969	0	32752	
3970	0	32764	
3971	0	32836	
3972	0	32916	
3973	0	33071	
3974	0	33120	
3975	0	33092	
3976	0	33092	
3977	0	32912	
3978	0	32621	
3979	0	32588	
3980	0	32484	
3981	0	32392	
3982	0	32564	
3983	0	32869	
3984	0	32792	
3985	0	32767	
3986	0	32641	
3987	0	32468	
3988	0	32404	
3989	0	32644	
3990	0	32892	
3991	0	32968	
3992	0	32952	
3993	0	32761	
3994	0	32988	
3995	0	33052	
3996	0	33032	
3997	0	33108	
3998	0	32972	
3999	0	32776	
4000	0	32740	
4001	0	32676	
4002	0	32572	
4003	0	32820	
4004	0	32816	
4005	0	32648	
4006	0	32816	
4007	0	32949	
4008	0	32685	
4009	0	32709	
4010	0	33060	
4011	0	32876	
4012	0	32464	
4013	0	32396	
4014	0	32480	
4015	0	32492	
4016	0	32484	
4017	0	32948	
4018	0	32981	
4019	0	32832	
4020	0	33000	
4021	0	33100	
4022	0	33172	
4023	0	33177	
4024	0	33016	
4025	0	32740	
4026	0	32516	
4027	0	32352	
4028	0	32176	
4029	0	32268	
4030	0	32336	
4031	0	32570	
4032	0	32646	
4033	0	32845	
4034	0	33216	
4035	0	33736	
4036	0	33532	
4037	0	33196	
4038	0	32956	
4039	0	32880	
4040	0	32616	
4041	0	32428	
4042	0	32240	
4043	0	32268	
4044	0	32536	
4045	0	32788	
4046	0	32892	
4047	0	32924	
4048	0	32712	
4049	0	32724	
4050	0	32672	
4051	0	32581	
4052	0	32872	
4053	0	32992	
4054	0	33030	
4055	0	32834	
4056	0	32844	
4057	0	32792	
4058	0	33000	
4059	0	32916	
4060	0	32680	
4061	0	32416	
4062	0	32596	
4063	0	32716	
4064	0	32566	
4065	0	32624	
4066	0	33060	
4067	0	32998	
4068	0	32768	
4069	0	32576	
4070	0	32420	
4071	0	32648	
4072	0	32944	
4073	0	32970	
4074	0	32952	
4075	0	33068	
4076	0	32903	
4077	0	32676	
4078	0	32488	
4079	0	32408	
4080	0	32680	
4081	0	32732	
4082	0	32696	
4083	0	32796	
4084	0	33020	
4085	0	33196	
4086	0	33104	
4087	0	32873	
4088	0	32824	
4089	0	32892	
4090	0	32708	
4091	0	32924	
4092	0	32652	
4093	0	32492	
4094	0	32468	
4095	0	32752	
4096	0	32844	
4097	0	32760	
4098	0	32677	
4099	0	32604	
4100	0	32684	
4101	0	32832	
4102	0	33048	
4103	0	33080	
4104	0	32932	
4105	0	32788	
4106	0	32572	
4107	0	32576	
4108	0	32800	
4109	0	32800	
4110	0	32900	
4111	0	32864	
4112	0	32688	
4113	0	32645	
4114	0	32692	
4115	0	32912	
4116	0	33052	
4117	0	32740	
4118	0	32604	
4119	0	32764	
4120	0	32728	
4121	0	32868	
4122	0	32832	
4123	0	32844	
4124	0	32728	
4125	0	32880	
4126	0	32969	
4127	0	32868	
4128	0	32820	
4129	0	32696	
4130	0	32516	
4131	0	32650	
4132	0	32948	
4133	0	32716	
4134	0	32760	
4135	0	32808	
4136	0	32876	
4137	0	32756	
4138	0	32815	
4139	0	32752	
4140	0	32704	
4141	0	32601	
4142	0	32836	
4143	0	32864	
4144	0	32884	
4145	0	32800	
4146	0	32988	
4147	0	32784	
4148	0	32692	
4149	0	32788	
4150	0	32769	
4151	0	32916	
4152	0	33004	
4153	0	32980	
4154	0	32709	
4155	0	32493	
4156	0	32460	
4157	0	32428	
4158	0	32700	
4159	0	32818	
4160	0	32940	
4161	0	32772	
4162	0	32756	
4163	0	32845	
4164	0	32876	
4165	0	32840	
4166	0	32820	
4167	0	32768	
4168	0	32869	
4169	0	32928	
4170	0	32820	
4171	0	32660	
4172	0	32505	
4173	0	32784	
4174	0	32970	
4175	0	33108	
4176	0	32948	
4177	0	32728	
4178	0	32488	
4179	0	32672	
4180	0	32900	
4181	0	32712	
4182	0	32684	
4183	0	32695	
4184	0	32668	
4185	0	32832	
4186	0	32741	
4187	0	32768	
4188	0	32805	
4189	0	32788	
4190	0	32560	
4191	0	32608	
4192	0	32404	
4193	0	32932	
4194	0	33457	
4195	0	32988	
4196	0	32732	
4197	0	32880	
4198	0	32772	
4199	0	33040	
4200	0	32924	
4201	0	32748	
4202	0	32708	
4203	0	32549	
4204	0	32624	
4205	0	32776	
4206	0	32765	
4207	0	32644	
4208	0	32716	
4209	0	32700	
4210	0	32676	
4211	0	32692	
4212	0	32532	
4213	0	32749	
4214	0	32992	
4215	0	33084	
4216	0	32748	
4217	0	32352	
4218	0	32720	
4219	0	32788	
4220	0	32652	
4221	0	32612	
4222	0	32792	
4223	0	32888	
4224	0	33008	
4225	0	33212	
4226	0	33272	
4227	0	33040	
4228	0	32856	
4229	0	33000	
4230	0	32952	
4231	0	32684	
4232	0	32684	
4233	0	32740	
4234	0	32716	
4235	0	32678	
4236	0	32520	
4237	0	32404	
4238	0	32300	
4239	0	32472	
4240	0	32553	
4241	0	32416	
4242	0	32476	
4243	0	32644	
4244	0	32908	
4245	0	33088	
4246	0	33148	
4247	0	33020	
4248	0	33133	
4249	0	33184	
4250	0	33388	
4251	0	33404	
4252	0	33136	
4253	0	32581	
4254	0	32532	
4255	0	32612	
4256	0	32437	
4257	0	32388	
4258	0	32476	
4259	0	32800	
4260	0	32736	
4261	0	32714	
4262	0	32704	
4263	0	32760	
4264	0	32848	
4265	0	32844	
4266	0	32668	
4267	0	32644	
4268	0	32612	
4269	0	32772	
4270	0	32749	
4271	0	32668	
4272	0	32664	
4273	0	32702	
4274	0	32972	
4275	0	32902	
4276	0	32860	
4277	0	32864	
4278	0	32869	
4279	0	33088	
4280	0	33072	
4281	0	33028	
4282	0	32792	
4283	0	32760	
4284	0	32673	
4285	0	32620	
4286	0	32728	
4287	0	32876	
4288	0	32604	
4289	0	32624	
4290	0	32872	
4291	0	33124	
4292	0	33040	
4293	0	32948	
4294	0	32776	
4295	0	32680	
4296	0	32576	
4297	0	32672	
4298	0	32524	
4299	0	32552	
4300	0	32592	
4301	0	32776	
4302	0	32812	
4303	0	32636	
4304	0	32631	
4305	0	32612	
4306	0	32616	
4307	0	32545	
4308	0	32716	
4309	0	33000	
4310	0	32856	
4311	0	32664	
4312	0	32664	
4313	0	32740	
4314	0	32780	
4315	0	32880	
4316	0	33008	
4317	0	33084	
4318	0	32932	
4319	0	32714	
4320	0	32580	
4321	0	32724	
4322	0	32848	
4323	0	32800	
4324	0	33020	
4325	0	33121	
4326	0	33108	
4327	0	33233	
4328	0	33061	
4329	0	33220	
4330	0	32868	
4331	0	32540	
4332	0	32588	
4333	0	32612	
4334	0	32400	
4335	0	32296	
4336	0	32276	
4337	0	32308	
4338	0	32260	
4339	0	32413	
4340	0	32656	
4341	0	32952	
4342	0	33452	
4343	0	33788	
4344	0	33496	
4345	0	33032	
4346	0	32704	
4347	0	32616	
4348	0	32596	
4349	0	32384	
4350	0	32520	
4351	0	32824	
4352	0	32832	
4353	0	32912	
4354	0	33196	
4355	0	32837	
4356	0	32432	
4357	0	32608	
4358	0	32788	
4359	0	32844	
4360	0	32910	
4361	0	32772	
4362	0	32624	
4363	0	32528	
4364	0	32576	
4365	0	32660	
4366	0	32660	
4367	0	32613	
4368	0	32536	
4369	0	32665	
4370	0	32824	
4371	0	32892	
4372	0	33000	
4373	0	32832	
4374	0	32740	
4375	0	32598	
4376	0	33044	
4377	0	33336	
4378	0	33068	
4379	0	33016	
4380	0	33036	
4381	0	32836	
4382	0	32688	
4383	0	32632	
4384	0	32688	
4385	0	32700	
4386	0	32884	
4387	0	32821	
4388	0	32812	
4389	0	32720	
4390	0	32600	
4391	0	32558	
4392	0	32512	
4393	0	32272	
4394	0	32340	
4395	0	32636	
4396	0	32580	
4397	0	32428	
4398	0	32444	
4399	0	32916	
4400	0	33128	
4401	0	33004	
4402	0	32884	
4403	0	32837	
4404	0	32820	
4405	0	32792	
4406	0	32880	
4407	0	32916	
4408	0	33012	
4409	0	32876	
4410	0	33004	
4411	0	33296	
4412	0	33472	
4413	0	33180	
4414	0	32980	
4415	0	32996	
4416	0	32960	
4417	0	32532	
4418	0	32260	
4419	0	32324	
4420	0	32440	
4421	0	32328	
4422	0	32516	
4423	0	32632	
4424	0	32580	
4425	0	32768	
4426	0	32936	
4427	0	33214	
4428	0	33134	
4429	0	33220	
4430	0	33284	
4431	0	32948	
4432	0	32552	
4433	0	32360	
4434	0	32472	
4435	0	32968	
4436	0	32968	
4437	0	32758	
4438	0	32644	
4439	0	32660	
4440	0	32716	
4441	0	32700	
4442	0	32628	
4443	0	32637	
4444	0	32844	
4445	0	32940	
4446	0	32784	
4447	0	32652	
4448	0	32692	
4449	0	32546	
4450	0	32600	
4451	0	32908	
4452	0	33084	
4453	0	33080	
4454	0	32804	
4455	0	32816	
4456	0	33144	
4457	0	33020	
4458	0	32704	
4459	0	32212	
4460	0	32224	
4461	0	32392	
4462	0	32392	
4463	0	32436	
4464	0	32540	
4465	0	32673	
4466	0	32740	
4467	0	33136	
4468	0	33248	
4469	0	33520	
4470	0	33576	
4471	0	33308	
4472	0	32976	
4473	0	32884	
4474	0	32708	
4475	0	32860	
4476	0	32832	
4477	0	32580	
4478	0	32292	
4479	0	32236	
4480	0	32310	
4481	0	32448	
4482	0	32440	
4483	0	32636	
4484	0	32784	
4485	0	32968	
4486	0	33152	
4487	0	33132	
4488	0	33116	
4489	0	32888	
4490	0	32924	
4491	0	32805	
4492	0	32524	
4493	0	32456	
4494	0	32500	
4495	0	32532	
4496	0	32576	
4497	0	32776	
4498	0	33136	
4499	0	33232	
4500	0	33168	
4501	0	33108	
4502	0	32900	
4503	0	32760	
4504	0	32856	
4505	0	32716	
4506	0	32588	
4507	0	32384	
4508	0	32309	
4509	0	32768	
4510	0	33332	
4511	0	33309	
4512	0	32824	
4513	0	32832	
4514	0	32732	
4515	0	32620	
4516	0	32520	
4517	0	32464	
4518	0	32660	
4519	0	32908	
4520	0	32912	
4521	0	32657	
4522	0	32522	
4523	0	32656	
4524	0	32744	
4525	0	32756	
4526	0	32980	
4527	0	33104	
4528	0	32828	
4529	0	32698	
4530	0	32692	
4531	0	32637	
4532	0	32653	
4533	0	32656	
4534	0	32668	
4535	0	32596	
4536	0	32780	
4537	0	32892	
4538	0	32896	
4539	0	33168	
4540	0	32948	
4541	0	32936	
4542	0	33108	
4543	0	33156	
4544	0	32918	
4545	0	32512	
4546	0	32260	
4547	0	32476	
4548	0	32676	
4549	0	32716	
4550	0	32932	
4551	0	32764	
4552	0	32808	
4553	0	32664	
4554	0	32660	
4555	0	32844	
4556	0	32924	
4557	0	32680	
4558	0	32476	
4559	0	32436	
4560	0	32512	
4561	0	32912	
4562	0	33328	
4563	0	33301	
4564	0	33308	
4565	0	32988	
4566	0	32900	
4567	0	32796	
4568	0	32780	
4569	0	32844	
4570	0	32840	
4571	0	32520	
4572	0	32544	
4573	0	32484	
4574	0	32576	
4575	0	32892	
4576	0	32820	
4577	0	32708	
4578	0	32702	
4579	0	32864	
4580	0	32908	
4581	0	32788	
4582	0	32645	
4583	0	32684	
4584	0	32748	
4585	0	32768	
4586	0	32736	
4587	0	32688	
4588	0	32920	
4589	0	32985	
4590	0	33152	
4591	0	32933	
4592	0	32780	
4593	0	32772	
4594	0	32816	
4595	0	32761	
4596	0	32502	
4597	0	32428	
4598	0	32496	
4599	0	32620	
4600	0	32460	
4601	0	32548	
4602	0	32744	
4603	0	32592	
4604	0	32601	
4605	0	32686	
4606	0	32660	
4607	0	32796	
4608	0	32944	
4609	0	32988	
4610	0	32820	
4611	0	32724	
4612	0	32708	
4613	0	33152	
4614	0	33216	
4615	0	33142	
4616	0	33112	
4617	0	33372	
4618	0	33172	
4619	0	32732	
4620	0	32740	
4621	0	32908	
4622	0	32988	
4623	0	32849	
4624	0	32788	
4625	0	32568	
4626	0	32496	
4627	0	32441	
4628	0	32416	
4629	0	32592	
4630	0	32748	
4631	0	32728	
4632	0	32894	
4633	0	32902	
4634	0	32661	
4635	0	32776	
4636	0	32708	
4637	0	32444	
4638	0	32484	
4639	0	32860	
4640	0	32852	
4641	0	32900	
4642	0	32836	
4643	0	32736	
4644	0	32788	
4645	0	32844	
4646	0	32884	
4647	0	32824	
4648	0	32724	
4649	0	32810	
4650	0	32856	
4651	0	32828	
4652	0	32752	
4653	0	32868	
4654	0	32840	
4655	0	32848	
4656	0	32716	
4657	0	32612	
4658	0	32560	
4659	0	32572	
4660	0	32636	
4661	0	32645	
4662	0	32708	
4663	0	32740	
4664	0	32845	
4665	0	32880	
4666	0	32784	
4667	0	32720	
4668	0	32796	
4669	0	32668	
4670	0	33048	
4671	0	33004	
4672	0	32980	
4673	0	33292	
4674	0	33136	
4675	0	32853	
4676	0	32940	
4677	0	33150	
4678	0	33128	
4679	0	32828	
4680	0	32680	
4681	0	32472	
4682	0	32332	
4683	0	32284	
4684	0	32180	
4685	0	32176	
4686	0	32332	
4687	0	32442	
4688	0	33144	
4689	0	33271	
4690	0	33312	
4691	0	33028	
4692	0	32700	
4693	0	32597	
4694	0	32836	
4695	0	32985	
4696	0	33084	
4697	0	32904	
4698	0	32812	
4699	0	32688	
4700	0	32740	
4701	0	33016	
4702	0	33028	
4703	0	32836	
4704	0	32489	
4705	0	32533	
4706	0	32680	
4707	0	32608	
4708	0	32724	
4709	0	32680	
4710	0	32592	
4711	0	32748	
4712	0	32781	
4713	0	32744	
4714	0	32888	
4715	0	33037	
4716	0	32884	
4717	0	32768	
4718	0	32852	
4719	0	32640	
4720	0	32456	
4721	0	32592	
4722	0	32652	
4723	0	32688	
4724	0	32752	
4725	0	32992	
4726	0	32976	
4727	0	32960	
4728	0	33170	
4729	0	33228	
4730	0	33052	
4731	0	32724	
4732	0	32472	
4733	0	32764	
4734	0	33068	
4735	0	32852	
4736	0	32712	
4737	0	32504	
4738	0	32516	
4739	0	32736	
4740	0	32832	
4741	0	32584	
4742	0	32380	
4743	0	32444	
4744	0	32568	
4745	0	32668	
4746	0	32964	
4747	0	33152	
4748	0	33164	
4749	0	33216	
4750	0	33125	
4751	0	32870	
4752	0	32706	
4753	0	32588	
4754	0	32660	
4755	0	32664	
4756	0	32584	
4757	0	32604	
4758	0	32508	
4759	0	32453	
4760	0	32597	
4761	0	33028	
4762	0	32996	
4763	0	33012	
4764	0	32636	
4765	0	32404	
4766	0	32652	
4767	0	32772	
4768	0	32861	
4769	0	33061	
4770	0	33336	
4771	0	33440	
4772	0	33108	
4773	0	32972	
4774	0	33084	
4775	0	32832	
4776	0	32536	
4777	0	32612	
4778	0	32392	
4779	0	32366	
4780	0	32596	
4781	0	32766	
4782	0	32730	
4783	0	32624	
4784	0	32616	
4785	0	32680	
4786	0	32820	
4787	0	32800	
4788	0	32680	
4789	0	32436	
4790	0	32252	
4791	0	32292	
4792	0	32528	
4793	0	32893	
4794	0	33004	
4795	0	33144	
4796	0	33268	
4797	0	33412	
4798	0	33204	
4799	0	33216	
4800	0	33128	
4801	0	33064	
4802	0	32596	
4803	0	32288	
4804	0	32336	
4805	0	32545	
4806	0	32676	
4807	0	32588	
4808	0	32596	
4809	0	32620	
4810	0	32556	
4811	0	32900	
4812	0	33040	
4813	0	33088	
4814	0	33194	
4815	0	33124	
4816	0	32672	
4817	0	32392	
4818	0	32464	
4819	0	32764	
4820	0	32904	
4821	0	33012	
4822	0	32964	
4823	0	32840	
4824	0	32913	
4825	0	33108	
4826	0	32932	
4827	0	32738	
4828	0	32420	
4829	0	32476	
4830	0	32484	
4831	0	32432	
4832	0	32688	
4833	0	32852	
4834	0	32876	
4835	0	32748	
4836	0	32732	
4837	0	32668	
4838	0	32804	
4839	0	32908	
4840	0	33036	
4841	0	33148	
4842	0	33008	
4843	0	32860	
4844	0	32702	
4845	0	32752	
4846	0	32616	
4847	0	32704	
4848	0	32856	
4849	0	32716	
4850	0	32780	
4851	0	32760	
4852	0	32708	
4853	0	32668	
4854	0	32681	
4855	0	32652	
4856	0	32704	
4857	0	32666	
4858	0	32708	
4859	0	32736	
4860	0	32678	
4861	0	32644	
4862	0	32648	
4863	0	32717	
4864	0	32736	
4865	0	32856	
4866	0	33004	
4867	0	33132	
4868	0	33100	
4869	0	32968	
4870	0	33000	
4871	0	32796	
4872	0	32792	
4873	0	32900	
4874	0	32644	
4875	0	32664	
4876	0	32576	
4877	0	32552	
4878	0	32612	
4879	0	32716	
4880	0	32846	
4881	0	32876	
4882	0	32917	
4883	0	32928	
4884	0	32832	
4885	0	32756	
4886	0	32708	
4887	0	32620	
4888	0	32724	
4889	0	32796	
4890	0	32568	
4891	0	32724	
4892	0	32640	
4893	0	32710	
4894	0	33088	
4895	0	33114	
4896	0	33201	
4897	0	32996	
4898	0	32853	
4899	0	32932	
4900	0	32876	
4901	0	32760	
4902	0	32541	
4903	0	32684	
4904	0	32996	
4905	0	33060	
4906	0	32648	
4907	0	32548	
4908	0	32588	
4909	0	32476	
4910	0	32500	
4911	0	32668	
4912	0	32692	
4913	0	32796	
4914	0	32944	
4915	0	32808	
4916	0	32848	
4917	0	32772	
4918	0	32928	
4919	0	32773	
4920	0	32608	
4921	0	32636	
4922	0	32628	
4923	0	32572	
4924	0	32700	
4925	0	32920	
4926	0	32960	
4927	0	32756	
4928	0	32701	
4929	0	32812	
4930	0	32952	
4931	0	32932	
4932	0	33040	
4933	0	32908	
4934	0	32816	
4935	0	33076	
4936	0	32828	
4937	0	32448	
4938	0	32316	
4939	0	32184	
4940	0	32220	
4941	0	32516	
4942	0	32644	
4943	0	33000	
4944	0	33196	
4945	0	33196	
4946	0	33236	
4947	0	33256	
4948	0	33264	
4949	0	33085	
4950	0	32888	
4951	0	32560	
4952	0	32380	
4953	0	32380	
4954	0	32472	
4955	0	32652	
4956	0	32596	
4957	0	32480	
4958	0	32484	
4959	0	32792	
4960	0	32772	
4961	0	32924	
4962	0	32784	
4963	0	32668	
4964	0	32800	
4965	0	32820	
4966	0	33096	
4967	0	33357	
4968	0	33000	
4969	0	32728	
4970	0	32768	
4971	0	32808	
4972	0	32804	
4973	0	32836	
4974	0	32940	
4975	0	32696	
4976	0	32698	
4977	0	32664	
4978	0	32436	
4979	0	32556	
4980	0	32904	
4981	0	32756	
4982	0	32580	
4983	0	32336	
4984	0	32389	
4985	0	32416	
4986	0	32468	
4987	0	32911	
4988	0	32980	
4989	0	33061	
4990	0	33272	
4991	0	33616	
4992	0	33112	
4993	0	33057	
4994	0	33156	
4995	0	32868	
4996	0	32636	
4997	0	32648	
4998	0	32824	
4999	0	32553	
5000	0	32608	
5001	0	32744	
5002	0	32604	
5003	0	32558	
5004	0	32524	
5005	0	32616	
5006	0	32732	
5007	0	32672	
5008	0	32740	
5009	0	32869	
5010	0	32984	
5011	0	32804	
5012	0	32704	
5013	0	32824	
5014	0	32681	
5015	0	32917	
5016	0	32816	
5017	0	32468	
5018	0	32556	
5019	0	32832	
5020	0	32740	
5021	0	32768	
5022	0	32856	
5023	0	32905	
5024	0	32884	
5025	0	32928	
5026	0	33008	
5027	0	32960	
5028	0	32864	
5029	0	32764	
5030	0	32724	
5031	0	32545	
5032	0	32460	
5033	0	32505	
5034	0	32756	
5035	0	32736	
5036	0	32788	
5037	0	32972	
5038	0	33092	
5039	0	32884	
5040	0	32817	
5041	0	32924	
5042	0	32612	
5043	0	32120	
5044	0	32304	
5045	0	32452	
5046	0	32461	
5047	0	32628	
5048	0	32904	
5049	0	33088	
5050	0	33192	
5051	0	33264	
5052	0	33412	
5053	0	33288	
5054	0	33120	
5055	0	33304	
5056	0	32992	
5057	0	32732	
5058	0	32728	
5059	0	32488	
5060	0	32512	
5061	0	32497	
5062	0	32360	
5063	0	32376	
5064	0	32464	
5065	0	32676	
5066	0	32776	
5067	0	32832	
5068	0	32676	
5069	0	32748	
5070	0	33044	
5071	0	33128	
5072	0	32716	
5073	0	32660	
5074	0	32460	
5075	0	32541	
5076	0	32700	
5077	0	32992	
5078	0	32924	
5079	0	32794	
5080	0	32560	
5081	0	32440	
5082	0	32288	
5083	0	32552	
5084	0	33440	
5085	0	33596	
5086	0	33504	
5087	0	33214	
5088	0	33028	
5089	0	33120	
5090	0	33182	
5091	0	32856	
5092	0	32532	
5093	0	32528	
5094	0	32096	
5095	0	31792	
5096	0	32095	
5097	0	32348	
5098	0	32377	
5099	0	32609	
5100	0	32860	
5101	0	33045	
5102	0	33204	
5103	0	33437	
5104	0	33564	
5105	0	33320	
5106	0	33108	
5107	0	33008	
5108	0	33008	
5109	0	32817	
5110	0	32568	
5111	0	32448	
5112	0	32608	
5113	0	32580	
5114	0	32452	
5115	0	32516	
5116	0	32740	
5117	0	32704	
5118	0	32616	
5119	0	32692	
5120	0	32804	
5121	0	32724	
5122	0	32408	
5123	0	32396	
5124	0	32252	
5125	0	32120	
5126	0	32288	
5127	0	33128	
5128	0	33100	
5129	0	32900	
5130	0	33120	
5131	0	33268	
5132	0	33240	
5133	0	33324	
5134	0	33496	
5135	0	33052	
5136	0	32408	
5137	0	32104	
5138	0	32324	
5139	0	32956	
5140	0	33768	
5141	0	34004	
5142	0	34028	
5143	0	33176	
5144	0	32096	
5145	0	31912	
5146	0	31820	
5147	0	32108	
5148	0	32596	
5149	0	33132	
5150	0	33165	
5151	0	32484	
5152	0	31696	
5153	0	30984	
5154	0	30872	
5155	0	31901	
5156	0	32701	
5157	0	32964	
5158	0	32696	
5159	0	32252	
5160	0	32300	
5161	0	32500	
5162	0	33165	
5163	0	33340	
5164	0	33748	
5165	0	34528	
5166	0	34448	
5167	0	31760	
5168	0	30764	
5169	0	31293	
5170	0	32248	
5171	0	33020	
5172	0	33824	
5173	0	33708	
5174	0	34056	
5175	0	33716	
5176	0	33137	
5177	0	33668	
5178	0	33100	
5179	0	32844	
5180	0	31748	
5181	0	29732	
5182	0	29856	
5183	0	30920	
5184	0	32508	
5185	0	34020	
5186	0	35116	
5187	0	36548	
5188	0	36672	
5189	0	36813	
5190	0	37028	
5191	0	36844	
5192	0	36172	
5193	0	35124	
5194	0	33392	
5195	0	32140	
5196	0	31432	
5197	0	30648	
5198	0	30628	
5199	0	29684	
5200	0	28519	
5201	0	29334	
5202	0	30500	
5203	0	31445	
5204	0	30356	
5205	0	30900	
5206	0	31600	
5207	0	32732	
5208	0	33280	
5209	0	30784	
5210	0	30426	
5211	0	32570	
5212	0	35076	
5213	0	35017	
5214	0	32924	
5215	0	32285	
5216	0	33856	
5217	0	33188	
5218	0	33088	
5219	0	34436	
5220	0	36308	
5221	0	35840	
5222	0	33272	
5223	0	31504	
5224	0	33296	
5225	0	34724	
5226	0	33102	
5227	0	32510	
5228	0	32388	
5229	0	31216	
5230	0	30928	
5231	0	32324	
5232	0	32928	
5233	0	32036	
5234	0	31604	
5235	0	32696	
5236	0	32292	
5237	0	32184	
5238	0	31984	
5239	0	31812	
5240	0	30976	
5241	0	30852	
5242	0	31072	
5243	0	31860	
5244	0	32436	
5245	0	33868	
5246	0	34140	
5247	0	34536	
5248	0	34912	
5249	0	35632	
5250	0	36844	
5251	0	36238	
5252	0	34300	
5253	0	33712	
5254	0	34048	
5255	0	33388	
5256	0	32084	
5257	0	29832	
5258	0	29108	
5259	0	30008	
5260	0	30796	
5261	0	30117	
5262	0	29948	
5263	0	30036	
5264	0	27624	
5265	0	26120	
5266	0	27517	
5267	0	28992	
5268	0	30366	
5269	0	32180	
5270	0	34408	
5271	0	37136	
5272	0	39104	
5273	0	40976	
5274	0	41812	
5275	0	41312	
5276	0	40752	
5277	0	37892	
5278	0	34556	
5279	0	33864	
5280	0	35912	
5281	0	34918	
5282	0	33941	
5283	0	32600	
5284	0	30024	
5285	0	28386	
5286	0	27997	
5287	0	28508	
5288	0	28832	
5289	0	29232	
5290	0	29820	
5291	0	30760	
5292	0	31840	
5293	0	31818	
5294	0	31136	
5295	0	31408	
5296	0	32116	
5297	0	32752	
5298	0	32812	
5299	0	32780	
5300	0	32700	
5301	0	32588	
5302	0	32676	
5303	0	33456	
5304	0	33392	
5305	0	32456	
5306	0	32568	
5307	0	33324	
5308	0	33796	
5309	0	33860	
5310	0	33188	
5311	0	32589	
5312	0	32568	
5313	0	32584	
5314	0	32676	
5315	0	32976	
5316	0	33145	
5317	0	32852	
5318	0	32988	
5319	0	32896	
5320	0	32476	
5321	0	32597	
5322	0	32704	
5323	0	32893	
5324	0	33005	
5325	0	33348	
5326	0	33164	
5327	0	32600	
5328	0	32636	
5329	0	32532	
5330	0	32088	
5331	0	32052	
5332	0	31980	
5333	0	31934	
5334	0	32576	
5335	0	33080	
5336	0	33576	
5337	0	33648	
5338	0	33960	
5339	0	33876	
5340	0	33206	
5341	0	33189	
5342	0	33304	
5343	0	33541	
5344	0	33268	
5345	0	32756	
5346	0	33036	
5347	0	33236	
5348	0	33092	
5349	0	33485	
5350	0	32788	
5351	0	32442	
5352	0	32253	
5353	0	32500	
5354	0	32800	
5355	0	32632	
5356	0	32244	
5357	0	31860	
5358	0	31694	
5359	0	32076	
5360	0	32501	
5361	0	32862	
5362	0	33160	
5363	0	33033	
5364	0	32912	
5365	0	32716	
5366	0	32846	
5367	0	33004	
5368	0	32868	
5369	0	32592	
5370	0	32676	
5371	0	32836	
5372	0	32702	
5373	0	32665	
5374	0	32676	
5375	0	32921	
5376	0	32663	
5377	0	32624	
5378	0	32792	
5379	0	32844	
5380	0	32760	
5381	0	32696	
5382	0	32552	
5383	0	32588	
5384	0	32832	
5385	0	32568	
5386	0	32444	
5387	0	32924	
5388	0	32884	
5389	0	32680	
5390	0	32585	
5391	0	32928	
5392	0	33204	
5393	0	33600	
5394	0	33728	
5395	0	33272	
5396	0	33172	
5397	0	32916	
5398	0	32781	
5399	0	32804	
5400	0	32508	
5401	0	32398	
5402	0	32328	
5403	0	32396	
5404	0	32672	
5405	0	32669	
5406	0	32504	
5407	0	32552	
5408	0	32824	
5409	0	33052	
5410	0	32948	
5411	0	32828	
5412	0	32836	
5413	0	32816	
5414	0	32688	
5415	0	32592	
5416	0	32430	
5417	0	32290	
5418	0	32128	
5419	0	32198	
5420	0	32412	
5421	0	32524	
5422	0	32904	
5423	0	33388	
5424	0	33272	
5425	0	32844	
5426	0	33196	
5427	0	33580	
5428	0	33780	
5429	0	33549	
5430	0	33462	
5431	0	33564	
5432	0	33527	
5433	0	33136	
5434	0	32636	
5435	0	32268	
5436	0	32228	
5437	0	32076	
5438	0	32056	
5439	0	32614	
5440	0	32848	
5441	0	32790	
5442	0	32444	
5443	0	32356	
5444	0	32392	
5445	0	32613	
5446	0	32364	
5447	0	32224	
5448	0	32404	
5449	0	32704	
5450	0	32560	
5451	0	32636	
5452	0	32646	
5453	0	32732	
5454	0	32552	
5455	0	32561	
5456	0	32974	
5457	0	33108	
5458	0	33213	
5459	0	33440	
5460	0	33552	
5461	0	33948	
5462	0	34052	
5463	0	33844	
5464	0	32960	
5465	0	32554	
5466	0	32576	
5467	0	32676	
5468	0	32800	
5469	0	32493	
5470	0	32292	
5471	0	32400	
5472	0	32444	
5473	0	32848	
5474	0	33004	
5475	0	32640	
5476	0	32157	
5477	0	32220	
5478	0	32484	
5479	0	32565	
5480	0	32580	
5481	0	32632	
5482	0	32756	
5483	0	32720	
5484	0	32860	
5485	0	33100	
5486	0	33132	
5487	0	32780	
5488	0	32372	
5489	0	32464	
5490	0	32624	
5491	0	32736	
5492	0	32556	
5493	0	32400	
5494	0	32384	
5495	0	32501	
5496	0	32792	
5497	0	32921	
5498	0	33004	
5499	0	33168	
5500	0	33364	
5501	0	33456	
5502	0	33180	
5503	0	33208	
5504	0	33168	
5505	0	32892	
5506	0	32817	
5507	0	32748	
5508	0	32596	
5509	0	32636	
5510	0	32497	
5511	0	32484	
5512	0	32492	
5513	0	32456	
5514	0	32492	
5515	0	32576	
5516	0	32764	
5517	0	32780	
5518	0	32748	
5519	0	32740	
5520	0	32896	
5521	0	32965	
5522	0	33120	
5523	0	32984	
5524	0	32752	
5525	0	32920	
5526	0	32892	
5527	0	33052	
5528	0	32936	
5529	0	32972	
5530	0	32660	
5531	0	32608	
5532	0	32632	
5533	0	32708	
5534	0	32785	
5535	0	32617	
5536	0	32444	
5537	0	32540	
5538	0	32504	
5539	0	32364	
5540	0	32596	
5541	0	32628	
5542	0	32865	
5543	0	32988	
5544	0	33012	
5545	0	32980	
5546	0	32816	
5547	0	33208	
5548	0	33265	
5549	0	33420	
5550	0	33368	
5551	0	32702	
5552	0	32473	
5553	0	32904	
5554	0	32813	
5555	0	32496	
5556	0	32500	
5557	0	32600	
5558	0	32660	
5559	0	32572	
5560	0	32392	
5561	0	32652	
5562	0	32812	
5563	0	33064	
5564	0	33148	
5565	0	33132	
5566	0	32772	
5567	0	32608	
5568	0	32844	
5569	0	32782	
5570	0	32952	
5571	0	33040	
5572	0	32784	
5573	0	32756	
5574	0	32748	
5575	0	32784	
5576	0	32740	
5577	0	32696	
5578	0	32653	
5579	0	32564	
5580	0	33004	
5581	0	33132	
5582	0	32684	
5583	0	32381	
5584	0	32336	
5585	0	32564	
5586	0	32692	
5587	0	32828	
5588	0	32624	
5589	0	32796	
5590	0	32644	
5591	0	32784	
5592	0	32900	
5593	0	32740	
5594	0	32917	
5595	0	32870	
5596	0	32792	
5597	0	32808	
5598	0	32740	
5599	0	32684	
5600	0	32749	
5601	0	32772	
5602	0	32670	
5603	0	32704	
5604	0	32676	
5605	0	32700	
5606	0	32848	
5607	0	33008	
5608	0	32956	
5609	0	32868	
5610	0	32836	
5611	0	32632	
5612	0	32524	
5613	0	32576	
5614	0	32612	
5615	0	32805	
5616	0	32872	
5617	0	32700	
5618	0	32724	
5619	0	32820	
5620	0	32928	
5621	0	32924	
5622	0	32880	
5623	0	32900	
5624	0	32876	
5625	0	32900	
5626	0	32804	
5627	0	32712	
5628	0	32717	
5629	0	32717	
5630	0	32597	
5631	0	32356	
5632	0	32356	
5633	0	32348	
5634	0	32404	
5635	0	32608	
5636	0	32916	
5637	0	33084	
5638	0	33248	
5639	0	33436	
5640	0	33236	
5641	0	33052	
5642	0	33200	
5643	0	32984	
5644	0	32724	
5645	0	32669	
5646	0	32584	
5647	0	32927	
5648	0	32921	
5649	0	32430	
5650	0	32376	
5651	0	32676	
5652	0	32638	
5653	0	32584	
5654	0	32928	
5655	0	32768	
5656	0	32832	
5657	0	32900	
5658	0	33102	
5659	0	32872	
5660	0	33013	
5661	0	33048	
5662	0	33160	
5663	0	33152	
5664	0	32900	
5665	0	32588	
5666	0	32804	
5667	0	32944	
5668	0	32864	
5669	0	32838	
5670	0	32800	
5671	0	32636	
5672	0	32332	
5673	0	32256	
5674	0	32548	
5675	0	32536	
5676	0	32604	
5677	0	32596	
5678	0	32760	
5679	0	32936	
5680	0	32776	
5681	0	32797	
5682	0	32724	
5683	0	32708	
5684	0	32660	
5685	0	32493	
5686	0	32400	
5687	0	32512	
5688	0	32552	
5689	0	32652	
5690	0	32772	
5691	0	33028	
5692	0	33264	
5693	0	33456	
5694	0	33168	
5695	0	33176	
5696	0	33073	
5697	0	32704	
5698	0	32526	
5699	0	32504	
5700	0	32824	
5701	0	32848	
5702	0	32836	
5703	0	32972	
5704	0	32644	
5705	0	32604	
5706	0	32616	
5707	0	32580	
5708	0	32324	
5709	0	32416	
5710	0	32524	
5711	0	32772	
5712	0	32661	
5713	0	32668	
5714	0	32764	
5715	0	33077	
5716	0	33316	
5717	0	33200	
5718	0	32716	
5719	0	32652	
5720	0	32916	
5721	0	32858	
5722	0	33180	
5723	0	33148	
5724	0	32668	
5725	0	32516	
5726	0	32660	
5727	0	32488	
5728	0	32716	
5729	0	33121	
5730	0	33188	
5731	0	33068	
5732	0	32688	
5733	0	32528	
5734	0	32384	
5735	0	32180	
5736	0	32504	
5737	0	32612	
5738	0	32468	
5739	0	32552	
5740	0	32780	
5741	0	33308	
5742	0	33414	
5743	0	33700	
5744	0	33580	
5745	0	33344	
5746	0	33072	
5747	0	32676	
5748	0	32464	
5749	0	32404	
5750	0	32318	
5751	0	32264	
5752	0	32416	
5753	0	32752	
5754	0	32720	
5755	0	32684	
5756	0	32737	
5757	0	32716	
5758	0	32800	
5759	0	32908	
5760	0	32774	
5761	0	32852	
5762	0	32933	
5763	0	32592	
5764	0	32325	
5765	0	32484	
5766	0	32628	
5767	0	32752	
5768	0	32980	
5769	0	32892	
5770	0	32704	
5771	0	32720	
5772	0	33038	
5773	0	32824	
5774	0	32624	
5775	0	32888	
5776	0	33012	
5777	0	33008	
5778	0	32756	
5779	0	32672	
5780	0	32684	
5781	0	32696	
5782	0	32532	
5783	0	32764	
5784	0	33101	
5785	0	32936	
5786	0	32716	
5787	0	32692	
5788	0	32784	
5789	0	33016	
5790	0	32777	
5791	0	32880	
5792	0	32760	
5793	0	32588	
5794	0	33024	
5795	0	33089	
5796	0	33020	
5797	0	32856	
5798	0	32676	
5799	0	32944	
5800	0	32820	
5801	0	32616	
5802	0	32648	
5803	0	32528	
5804	0	32473	
5805	0	32524	
5806	0	32264	
5807	0	32296	
5808	0	32257	
5809	0	32216	
5810	0	33068	
5811	0	33180	
5812	0	33316	
5813	0	33456	
5814	0	33544	
5815	0	33656	
5816	0	33280	
5817	0	33036	
5818	0	32948	
5819	0	32869	
5820	0	32704	
5821	0	32589	
5822	0	32516	
5823	0	32440	
5824	0	32388	
5825	0	32384	
5826	0	32296	
5827	0	32456	
5828	0	32460	
5829	0	32492	
5830	0	32463	
5831	0	32692	
5832	0	32868	
5833	0	32829	
5834	0	32822	
5835	0	33248	
5836	0	33309	
5837	0	33112	
5838	0	32992	
5839	0	32645	
5840	0	32686	
5841	0	32601	
5842	0	32452	
5843	0	32517	
5844	0	32644	
5845	0	33064	
5846	0	33118	
5847	0	33244	
5848	0	33196	
5849	0	33164	
5850	0	32892	
5851	0	33060	
5852	0	32700	
5853	0	32542	
5854	0	32478	
5855	0	32390	
5856	0	32368	
5857	0	32372	
5858	0	32476	
5859	0	32580	
5860	0	32744	
5861	0	32812	
5862	0	32768	
5863	0	32820	
5864	0	32872	
5865	0	32940	
5866	0	33038	
5867	0	32944	
5868	0	32756	
5869	0	32888	
5870	0	32868	
5871	0	32664	
5872	0	32644	
5873	0	32800	
5874	0	32704	
5875	0	32448	
5876	0	32352	
5877	0	32608	
5878	0	33022	
5879	0	32764	
5880	0	32772	
5881	0	32824	
5882	0	32908	
5883	0	32758	
5884	0	33188	
5885	0	33388	
5886	0	32984	
5887	0	32972	
5888	0	32948	
5889	0	32775	
5890	0	32597	
5891	0	32576	
5892	0	32604	
5893	0	32590	
5894	0	32742	
5895	0	32976	
5896	0	32904	
5897	0	32913	
5898	0	32752	
5899	0	32576	
5900	0	32640	
5901	0	32760	
5902	0	32792	
5903	0	32680	
5904	0	32774	
5905	0	32680	
5906	0	32580	
5907	0	32480	
5908	0	32664	
5909	0	32552	
5910	0	32726	
5911	0	33072	
5912	0	32956	
5913	0	32908	
5914	0	32900	
5915	0	32737	
5916	0	32560	
5917	0	32713	
5918	0	32872	
5919	0	33072	
5920	0	33152	
5921	0	32840	
5922	0	32672	
5923	0	32702	
5924	0	32756	
5925	0	32824	
5926	0	32732	
5927	0	32584	
5928	0	32504	
5929	0	32417	
5930	0	32376	
5931	0	32350	
5932	0	32456	
5933	0	32552	
5934	0	32704	
5935	0	33104	
5936	0	33420	
5937	0	33172	
5938	0	33188	
5939	0	33012	
5940	0	32712	
5941	0	32696	
5942	0	32920	
5943	0	33032	
5944	0	33504	
5945	0	32856	
5946	0	32484	
5947	0	32433	
5948	0	32112	
5949	0	32468	
5950	0	32790	
5951	0	32753	
5952	0	32981	
5953	0	32996	
5954	0	33480	
5955	0	33456	
5956	0	33316	
5957	0	33118	
5958	0	32996	
5959	0	32740	
5960	0	32580	
5961	0	32457	
5962	0	32560	
5963	0	32468	
5964	0	32296	
5965	0	32392	
5966	0	32348	
5967	0	32340	
5968	0	32380	
5969	0	32356	
5970	0	32412	
5971	0	32968	
5972	0	33244	
5973	0	33064	
5974	0	32844	
5975	0	32944	
5976	0	33104	
5977	0	33064	
5978	0	32936	
5979	0	32628	
5980	0	32644	
5981	0	32708	
5982	0	32684	
5983	0	32774	
5984	0	32836	
5985	0	32944	
5986	0	32716	
5987	0	32640	
5988	0	32796	
5989	0	32912	
5990	0	32885	
5991	0	32728	
5992	0	32736	
5993	0	33181	
5994	0	32908	
5995	0	32860	
5996	0	32625	
5997	0	32529	
5998	0	32544	
5999	0	32600	
6000	0	32604	
6001	0	32365	
6002	0	32452	
6003	0	32696	
6004	0	32813	
6005	0	32952	
6006	0	32920	
6007	0	33004	
6008	0	33088	
6009	0	33272	
6010	0	33320	
6011	0	33105	
6012	0	32879	
6013	0	32616	
6014	0	32648	
6015	0	32444	
6016	0	32300	
6017	0	32428	
6018	0	32572	
6019	0	32704	
6020	0	32868	
6021	0	32844	
6022	0	32992	
6023	0	33368	
6024	0	33216	
6025	0	32712	
6026	0	32524	
6027	0	32608	
6028	0	32720	
6029	0	32868	
6030	0	32864	
6031	0	32912	
6032	0	32840	
6033	0	32822	
6034	0	32744	
6035	0	32704	
6036	0	32672	
6037	0	32612	
6038	0	32660	
6039	0	32736	
6040	0	32512	
6041	0	32573	
6042	0	32884	
6043	0	33101	
6044	0	33184	
6045	0	32956	
6046	0	32724	
6047	0	32708	
6048	0	32540	
6049	0	32577	
6050	0	32420	
6051	0	32432	
6052	0	32732	
6053	0	33004	
6054	0	32944	
6055	0	32876	
6056	0	32716	
6057	0	33000	
6058	0	33256	
6059	0	33420	
6060	0	32865	
6061	0	32452	
6062	0	32660	
6063	0	32644	
6064	0	32704	
6065	0	32820	
6066	0	32860	
6067	0	32840	
6068	0	32760	
6069	0	32764	
6070	0	32861	
6071	0	32892	
6072	0	32613	
6073	0	32353	
6074	0	32421	
6075	0	32492	
6076	0	32520	
6077	0	32600	
6078	0	32652	
6079	0	32636	
6080	0	32464	
6081	0	32560	
6082	0	32684	
6083	0	32724	
6084	0	32888	
6085	0	32782	
6086	0	32728	
6087	0	32988	
6088	0	33441	
6089	0	33492	
6090	0	33236	
6091	0	32797	
6092	0	32796	
6093	0	33172	
6094	0	33364	
6095	0	33020	
6096	0	32916	
6097	0	32486	
6098	0	32508	
6099	0	32564	
6100	0	32568	
6101	0	32608	
6102	0	32736	
6103	0	32704	
6104	0	32764	
6105	0	32456	
6106	0	32637	
6107	0	32548	
6108	0	32508	
6109	0	32600	
6110	0	33068	
6111	0	33104	
6112	0	33124	
6113	0	33004	
6114	0	33312	
6115	0	33076	
6116	0	32798	
6117	0	32924	
6118	0	32788	
6119	0	32636	
6120	0	32608	
6121	0	32588	
6122	0	32524	
6123	0	32460	
6124	0	32472	
6125	0	32360	
6126	0	32576	
6127	0	32614	
6128	0	32654	
6129	0	32696	
6130	0	32704	
6131	0	32877	
6132	0	33065	
6133	0	32992	
6134	0	32844	
6135	0	32884	
6136	0	32972	
6137	0	33206	
6138	0	33004	
6139	0	32776	
6140	0	32740	
6141	0	32664	
6142	0	32424	
6143	0	32504	
6144	0	32640	
6145	0	32413	
6146	0	32424	
6147	0	32568	
6148	0	32780	
6149	0	32740	
6150	0	32900	
6151	0	32936	
6152	0	32900	
6153	0	33022	
6154	0	33140	
6155	0	33032	
6156	0	32897	
6157	0	32944	
6158	0	33124	
6159	0	33116	
6160	0	33052	
6161	0	32856	
6162	0	32968	
6163	0	32796	
6164	0	32652	
6165	0	32548	
6166	0	32412	
6167	0	32476	
6168	0	32432	
6169	0	32556	
6170	0	32932	
6171	0	32772	
6172	0	32732	
6173	0	32804	
6174	0	32704	
6175	0	32704	
6176	0	32590	
6177	0	32644	
6178	0	32646	
6179	0	32524	
6180	0	32552	
6181	0	32640	
6182	0	32540	
6183	0	32672	
6184	0	33146	
6185	0	33582	
6186	0	33132	
6187	0	33064	
6188	0	33156	
6189	0	33120	
6190	0	32820	
6191	0	32556	
6192	0	32328	
6193	0	32320	
6194	0	32660	
6195	0	32652	
6196	0	32384	
6197	0	32796	
6198	0	33056	
6199	0	33108	
6200	0	33180	
6201	0	33100	
6202	0	32988	
6203	0	32948	
6204	0	32844	
6205	0	32817	
6206	0	32604	
6207	0	32568	
6208	0	32417	
6209	0	32388	
6210	0	32356	
6211	0	32424	
6212	0	32476	
6213	0	32552	
6214	0	32496	
6215	0	32429	
6216	0	32664	
6217	0	32928	
6218	0	33160	
6219	0	33572	
6220	0	33752	
6221	0	33304	
6222	0	32865	
6223	0	32852	
6224	0	32944	
6225	0	32686	
6226	0	32676	
6227	0	32576	
6228	0	32784	
6229	0	33284	
6230	0	32951	
6231	0	32556	
6232	0	32540	
6233	0	32824	
6234	0	32920	
6235	0	32588	
6236	0	32368	
6237	0	32412	
6238	0	32380	
6239	0	32412	
6240	0	32624	
6241	0	32828	
6242	0	33113	
6243	0	32972	
6244	0	32948	
6245	0	33172	
6246	0	33296	
6247	0	33176	
6248	0	32773	
6249	0	32724	
6250	0	32952	
6251	0	32812	
6252	0	32621	
6253	0	32456	
6254	0	32344	
6255	0	32452	
6256	0	32320	
6257	0	32388	
6258	0	32672	
6259	0	32804	
6260	0	32692	
6261	0	32708	
6262	0	32856	
6263	0	32936	
6264	0	32768	
6265	0	32728	
6266	0	32972	
6267	0	32984	
6268	0	33164	
6269	0	33362	
6270	0	33444	
6271	0	32976	
6272	0	33221	
6273	0	32961	
6274	0	32600	
6275	0	32372	
6276	0	32477	
6277	0	32588	
6278	0	32768	
6279	0	32668	
6280	0	32614	
6281	0	32568	
6282	0	32652	
6283	0	32761	
6284	0	32588	
6285	0	32880	
6286	0	32928	
6287	0	32878	
6288	0	32544	
6289	0	32600	
6290	0	32900	
6291	0	32816	
6292	0	32736	
6293	0	32764	
6294	0	32684	
6295	0	32636	
6296	0	32545	
6297	0	32608	
6298	0	32960	
6299	0	32976	
6300	0	32880	
6301	0	32664	
6302	0	32828	
6303	0	32924	
6304	0	32912	
6305	0	33116	
6306	0	32868	
6307	0	32876	
6308	0	32836	
6309	0	33108	
6310	0	32873	
6311	0	32820	
6312	0	32974	
6313	0	32940	
6314	0	32768	
6315	0	32660	
6316	0	32600	
6317	0	32524	
6318	0	32430	
6319	0	32528	
6320	0	32680	
6321	0	32837	
6322	0	32944	
6323	0	32852	
6324	0	32660	
6325	0	32564	
6326	0	32504	
6327	0	32346	
6328	0	32160	
6329	0	32152	
6330	0	32420	
6331	0	32678	
6332	0	33144	
6333	0	33496	
6334	0	33448	
6335	0	33437	
6336	0	33357	
6337	0	33264	
6338	0	33212	
6339	0	33049	
6340	0	32710	
6341	0	32417	
6342	0	32356	
6343	0	32440	
6344	0	32340	
6345	0	32464	
6346	0	32556	
6347	0	32924	
6348	0	32964	
6349	0	32940	
6350	0	33124	
6351	0	33009	
6352	0	32900	
6353	0	32988	
6354	0	33128	
6355	0	32832	
6356	0	32761	
6357	0	32672	
6358	0	32536	
6359	0	32689	
6360	0	32656	
6361	0	32668	
6362	0	32596	
6363	0	32544	
6364	0	32532	
6365	0	32616	
6366	0	32493	
6367	0	32352	
6368	0	32512	
6369	0	32716	
6370	0	32880	
6371	0	33212	
6372	0	33630	
6373	0	33636	
6374	0	33324	
6375	0	32944	
6376	0	32692	
6377	0	32624	
6378	0	32680	
6379	0	32580	
6380	0	32296	
6381	0	32336	
6382	0	32573	
6383	0	32760	
6384	0	32916	
6385	0	32848	
6386	0	32708	
6387	0	32756	
6388	0	32804	
6389	0	32732	
6390	0	32764	
6391	0	32692	
6392	0	32712	
6393	0	32712	
6394	0	32772	
6395	0	32708	
6396	0	32700	
6397	0	32808	
6398	0	32865	
6399	0	32868	
6400	0	32912	
6401	0	33094	
6402	0	32792	
6403	0	32888	
6404	0	32788	
6405	0	32669	
6406	0	32788	
6407	0	32796	
6408	0	32668	
6409	0	32592	
6410	0	32520	
6411	0	32612	
6412	0	32784	
6413	0	32780	
6414	0	32668	
6415	0	32609	
6416	0	32768	
6417	0	32748	
6418	0	32988	
6419	0	33156	
6420	0	32921	
6421	0	32776	
6422	0	32640	
6423	0	32637	
6424	0	32564	
6425	0	32872	
6426	0	32906	
6427	0	32698	
6428	0	32636	
6429	0	32836	
6430	0	33132	
6431	0	33116	
6432	0	32732	
6433	0	32572	
6434	0	32588	
6435	0	32640	
6436	0	32908	
6437	0	32816	
6438	0	32812	
6439	0	32840	
6440	0	32816	
6441	0	32872	
6442	0	33044	
6443	0	33184	
6444	0	33181	
6445	0	32864	
6446	0	32418	
6447	0	32508	
6448	0	32636	
6449	0	33065	
6450	0	33192	
6451	0	32924	
6452	0	32704	
6453	0	32668	
6454	0	32644	
6455	0	32832	
6456	0	32516	
6457	0	32508	
6458	0	32476	
6459	0	32465	
6460	0	32524	
6461	0	32668	
6462	0	32656	
6463	0	32832	
6464	0	32960	
6465	0	33044	
6466	0	33096	
6467	0	32848	
6468	0	32788	
6469	0	32780	
6470	0	32676	
6471	0	32796	
6472	0	33036	
6473	0	33004	
6474	0	33012	
6475	0	32896	
6476	0	32704	
6477	0	32568	
6478	0	32709	
6479	0	32576	
6480	0	32564	
6481	0	32724	
6482	0	32812	
6483	0	32788	
6484	0	32976	
6485	0	33044	
6486	0	32824	
6487	0	32672	
6488	0	32564	
6489	0	32476	
6490	0	32600	
6491	0	32652	
6492	0	32648	
6493	0	32649	
6494	0	32784	
6495	0	32988	
6496	0	33272	
6497	0	33269	
6498	0	32900	
6499	0	32484	
6500	0	32372	
6501	0	32532	
6502	0	32608	
6503	0	32950	
6504	0	33108	
6505	0	32888	
6506	0	32796	
6507	0	32824	
6508	0	32782	
6509	0	32640	
6510	0	32532	
6511	0	32780	
6512	0	32728	
6513	0	32592	
6514	0	32605	
6515	0	32692	
6516	0	32736	
6517	0	32824	
6518	0	32980	
6519	0	32932	
6520	0	32928	
6521	0	32944	
6522	0	32788	
6523	0	32548	
6524	0	32432	
6525	0	32648	
6526	0	32909	
6527	0	32948	
6528	0	32632	
6529	0	32724	
6530	0	32776	
6531	0	32916	
6532	0	33140	
6533	0	32990	
6534	0	32964	
6535	0	33032	
6536	0	32672	
6537	0	32496	
6538	0	32512	
6539	0	32521	
6540	0	32885	
6541	0	32984	
6542	0	32924	
6543	0	32848	
6544	0	32832	
6545	0	32900	
6546	0	33020	
6547	0	32796	
6548	0	32848	
6549	0	32876	
6550	0	32824	
6551	0	32724	
6552	0	32720	
6553	0	32764	
6554	0	32824	
6555	0	32568	
6556	0	32724	
6557	0	32648	
6558	0	32936	
6559	0	32904	
6560	0	32724	
6561	0	32712	
6562	0	32792	
6563	0	32820	
6564	0	32676	
6565	0	32728	
6566	0	32792	
6567	0	32872	
6568	0	32732	
6569	0	32476	
6570	0	32388	
6571	0	32412	
6572	0	32812	
6573	0	32996	
6574	0	33088	
6575	0	33196	
6576	0	33064	
6577	0	32751	
6578	0	32801	
6579	0	32868	
6580	0	32669	
6581	0	32424	
6582	0	32364	
6583	0	32628	
6584	0	32668	
6585	0	32656	
6586	0	32796	
6587	0	33008	
6588	0	32840	
6589	0	32886	
6590	0	33076	
6591	0	33132	
6592	0	33064	
6593	0	32948	
6594	0	32844	
6595	0	32797	
6596	0	32780	
6597	0	32648	
6598	0	32424	
6599	0	32452	
6600	0	32528	
6601	0	32468	
6602	0	32436	
6603	0	32796	
6604	0	32788	
6605	0	32901	
6606	0	33097	
6607	0	33108	
6608	0	33108	
6609	0	32900	
6610	0	32552	
6611	0	32460	
6612	0	32500	
6613	0	32316	
6614	0	32700	
6615	0	32748	
6616	0	32949	
6617	0	33012	
6618	0	33366	
6619	0	33364	
6620	0	33272	
6621	0	32752	
6622	0	32505	
6623	0	32840	
6624	0	32976	
6625	0	32752	
6626	0	32648	
6627	0	32448	
6628	0	32556	
6629	0	32631	
6630	0	32728	
6631	0	32640	
6632	0	32672	
6633	0	32832	
6634	0	32836	
6635	0	32596	
6636	0	32612	
6637	0	32700	
6638	0	32588	
6639	0	32616	
6640	0	32700	
6641	0	32800	
6642	0	32788	
6643	0	33004	
6644	0	32776	
6645	0	32509	
6646	0	32536	
6647	0	32856	
6648	0	33240	
6649	0	33344	
6650	0	33120	
6651	0	32872	
6652	0	32901	
6653	0	32960	
6654	0	32992	
6655	0	32840	
6656	0	32892	
6657	0	32764	
6658	0	32876	
6659	0	32884	
6660	0	32764	
6661	0	32544	
6662	0	32488	
6663	0	32680	
6664	0	32704	
6665	0	32656	
6666	0	32528	
6667	0	32650	
6668	0	32828	
6669	0	32788	
6670	0	32704	
6671	0	32608	
6672	0	32528	
6673	0	32740	
6674	0	32744	
6675	0	32684	
6676	0	32740	
6677	0	32862	
6678	0	32900	
6679	0	33045	
6680	0	32848	
6681	0	32837	
6682	0	32980	
6683	0	33012	
6684	0	32972	
6685	0	32613	
6686	0	32560	
6687	0	32572	
6688	0	32852	
6689	0	32880	
6690	0	32833	
6691	0	32677	
6692	0	32805	
6693	0	32868	
6694	0	32784	
6695	0	32660	
6696	0	32740	
6697	0	32652	
6698	0	32732	
6699	0	32910	
6700	0	32886	
6701	0	32516	
6702	0	32560	
6703	0	32588	
6704	0	32877	
6705	0	32894	
6706	0	32654	
6707	0	32764	
6708	0	32932	
6709	0	33088	
6710	0	33016	
6711	0	32893	
6712	0	32592	
6713	0	32900	
6714	0	32880	
6715	0	32616	
6716	0	32588	
6717	0	32568	
6718	0	32644	
6719	0	32720	
6720	0	32688	
6721	0	32644	
6722	0	32632	
6723	0	33069	
6724	0	33296	
6725	0	32972	
6726	0	32672	
6727	0	32756	
6728	0	32876	
6729	0	33044	
6730	0	32904	
6731	0	32772	
6732	0	32620	
6733	0	32678	
6734	0	32772	
6735	0	32694	
6736	0	32768	
6737	0	32672	
6738	0	32616	
6739	0	32708	
6740	0	33072	
6741	0	32960	
6742	0	32692	
6743	0	32580	
6744	0	32696	
6745	0	32552	
6746	0	32552	
6747	0	32592	
6748	0	32688	
6749	0	32876	
6750	0	32980	
6751	0	32932	
6752	0	32768	
6753	0	33028	
6754	0	32896	
6755	0	32900	
6756	0	32909	
6757	0	32697	
6758	0	32548	
6759	0	32497	
6760	0	32596	
6761	0	32684	
6762	0	32736	
6763	0	32732	
6764	0	32952	
6765	0	33004	
6766	0	32920	
6767	0	33028	
6768	0	32928	
6769	0	32728	
6770	0	32793	
6771	0	32952	
6772	0	32720	
6773	0	32884	
6774	0	32980	
6775	0	32908	
6776	0	32732	
6777	0	32444	
6778	0	32656	
6779	0	32680	
6780	0	32712	
6781	0	32676	
6782	0	32632	
6783	0	32668	
6784	0	32464	
6785	0	32404	
6786	0	32684	
6787	0	32968	
6788	0	32692	
6789	0	32704	
6790	0	32812	
6791	0	33205	
6792	0	32984	
6793	0	33144	
6794	0	32920	
6795	0	32756	
6796	0	32628	
6797	0	32688	
6798	0	32664	
6799	0	32748	
6800	0	32772	
6801	0	33124	
6802	0	33566	
6803	0	33032	
6804	0	32767	
6805	0	32864	
6806	0	32756	
6807	0	32632	
6808	0	32528	
6809	0	32460	
6810	0	32489	
6811	0	32572	
6812	0	32712	
6813	0	32758	
6814	0	32652	
6815	0	32600	
6816	0	32768	
6817	0	32908	
6818	0	32957	
6819	0	32940	
6820	0	32732	
6821	0	32584	
6822	0	32556	
6823	0	32696	
6824	0	32632	
6825	0	32728	
6826	0	32720	
6827	0	32848	
6828	0	32848	
6829	0	32833	
6830	0	32852	
6831	0	32972	
6832	0	32816	
6833	0	32972	
6834	0	33224	
6835	0	33120	
6836	0	32904	
6837	0	32728	
6838	0	32576	
6839	0	32533	
6840	0	32456	
6841	0	32356	
6842	0	32600	
6843	0	32652	
6844	0	32684	
6845	0	32880	
6846	0	32748	
6847	0	32692	
6848	0	32748	
6849	0	32676	
6850	0	32432	
6851	0	32420	
6852	0	32680	
6853	0	32928	
6854	0	33140	
6855	0	33372	
6856	0	33404	
6857	0	33128	
6858	0	33012	
6859	0	33168	
6860	0	32844	
6861	0	32518	
6862	0	32524	
6863	0	32492	
6864	0	32552	
6865	0	32433	
6866	0	32416	
6867	0	32536	
6868	0	32928	
6869	0	33048	
6870	0	32828	
6871	0	32788	
6872	0	32964	
6873	0	33192	
6874	0	33052	
6875	0	32856	
6876	0	32740	
6877	0	32820	
6878	0	33280	
6879	0	33280	
6880	0	32725	
6881	0	32348	
6882	0	32312	
6883	0	32453	
6884	0	32652	
6885	0	32676	
6886	0	32740	
6887	0	32676	
6888	0	32624	
6889	0	32684	
6890	0	32584	
6891	0	32636	
6892	0	32804	
6893	0	32784	
6894	0	32676	
6895	0	32544	
6896	0	32544	
6897	0	32798	
6898	0	32884	
6899	0	32960	
6900	0	33032	
6901	0	33080	
6902	0	33261	
6903	0	33220	
6904	0	32936	
6905	0	32808	
6906	0	32716	
6907	0	32609	
6908	0	32544	
6909	0	32588	
6910	0	32736	
6911	0	32472	
6912	0	32506	
6913	0	32648	
6914	0	32740	
6915	0	32704	
6916	0	32532	
6917	0	32762	
6918	0	33188	
6919	0	32840	
6920	0	32798	
6921	0	32676	
6922	0	32708	
6923	0	32896	
6924	0	32916	
6925	0	33068	
6926	0	32848	
6927	0	32904	
6928	0	32904	
6929	0	33192	
6930	0	33080	
6931	0	32884	
6932	0	32660	
6933	0	32750	
6934	0	32760	
6935	0	32484	
6936	0	32484	
6937	0	32656	
6938	0	32700	
6939	0	32732	
6940	0	32604	
6941	0	32660	
6942	0	32668	
6943	0	32728	
6944	0	32948	
6945	0	32780	
6946	0	32716	
6947	0	32478	
6948	0	32452	
6949	0	32436	
6950	0	32437	
6951	0	32596	
6952	0	32910	
6953	0	33000	
6954	0	32912	
6955	0	33162	
6956	0	33516	
6957	0	33272	
6958	0	33108	
6959	0	33164	
6960	0	33305	
6961	0	33293	
6962	0	32920	
6963	0	32748	
6964	0	32748	
6965	0	32604	
6966	0	32412	
6967	0	32316	
6968	0	32440	
6969	0	32534	
6970	0	32632	
6971	0	32601	
6972	0	32712	
6973	0	32448	
6974	0	32204	
6975	0	32660	
6976	0	32932	
6977	0	32950	
6978	0	32744	
6979	0	32628	
6980	0	32944	
6981	0	32926	
6982	0	32794	
6983	0	32808	
6984	0	32884	
6985	0	32916	
6986	0	32908	
6987	0	33116	
6988	0	33060	
6989	0	32948	
6990	0	32868	
6991	0	32768	
6992	0	32512	
6993	0	32528	
6994	0	32548	
6995	0	32408	
6996	0	32608	
6997	0	32764	
6998	0	32864	
6999	0	32916	
7000	0	32772	
7001	0	32932	
7002	0	32884	
7003	0	32774	
7004	0	32972	
7005	0	32948	
7006	0	32664	
7007	0	32653	
7008	0	32688	
7009	0	32608	
7010	0	32620	
7011	0	32760	
7012	0	32716	
7013	0	32532	
7014	0	32676	
7015	0	32692	
7016	0	32941	
7017	0	32944	
7018	0	32681	
7019	0	32708	
7020	0	32845	
7021	0	33096	
7022	0	33064	
7023	0	32900	
7024	0	32800	
7025	0	32836	
7026	0	32878	
7027	0	32804	
7028	0	32940	
7029	0	32880	
7030	0	32904	
7031	0	32956	
7032	0	32684	
7033	0	32784	
7034	0	32884	
7035	0	32832	
7036	0	32542	
7037	0	32404	
7038	0	32284	
7039	0	32480	
7040	0	32516	
7041	0	32424	
7042	0	32420	
7043	0	32752	
7044	0	32848	
7045	0	32869	
7046	0	32892	
7047	0	33068	
7048	0	33036	
7049	0	33298	
7050	0	33022	
7051	0	32877	
7052	0	32720	
7053	0	32520	
7054	0	32812	
7055	0	32900	
7056	0	33144	
7057	0	33200	
7058	0	33004	
7059	0	32772	
7060	0	32696	
7061	0	32760	
7062	0	32656	
7063	0	32704	
7064	0	32816	
7065	0	32740	
7066	0	32576	
7067	0	32541	
7068	0	32536	
7069	0	32670	
7070	0	32672	
7071	0	32620	
7072	0	32736	
7073	0	32932	
7074	0	32976	
7075	0	32824	
7076	0	32664	
7077	0	32688	
7078	0	32720	
7079	0	32844	
7080	0	33000	
7081	0	32800	
7082	0	32476	
7083	0	32480	
7084	0	32870	
7085	0	33156	
7086	0	33048	
7087	0	32818	
7088	0	32728	
7089	0	32832	
7090	0	33053	
7091	0	33356	
7092	0	33328	
7093	0	33080	
7094	0	32652	
7095	0	32396	
7096	0	32380	
7097	0	32385	
7098	0	32548	
7099	0	32512	
7100	0	32532	
7101	0	32592	
7102	0	32697	
7103	0	32816	
7104	0	32932	
7105	0	32936	
7106	0	32944	
7107	0	32669	
7108	0	32788	
7109	0	32928	
7110	0	32808	
7111	0	32736	
7112	0	32624	
7113	0	32724	
7114	0	32736	
7115	0	32844	
7116	0	32876	
7117	0	32704	
7118	0	32824	
7119	0	33016	
7120	0	32844	
7121	0	32752	
7122	0	32624	
7123	0	32630	
7124	0	32852	
7125	0	32872	
7126	0	32780	
7127	0	32788	
7128	0	32704	
7129	0	32788	
7130	0	32920	
7131	0	32920	
7132	0	33184	
7133	0	33172	
7134	0	32900	
7135	0	32816	
7136	0	32588	
7137	0	32548	
7138	0	32704	
7139	0	32776	
7140	0	32496	
7141	0	32516	
7142	0	32584	
7143	0	32556	
7144	0	32588	
7145	0	32196	
7146	0	31960	
7147	0	32116	
7148	0	32624	
7149	0	33236	
7150	0	33404	
7151	0	33456	
7152	0	33492	
7153	0	33332	
7154	0	33888	
7155	0	33752	
7156	0	33260	
7157	0	33148	
7158	0	32652	
7159	0	32570	
7160	0	32660	
7161	0	32504	
7162	0	32348	
7163	0	32432	
7164	0	32458	
7165	0	32556	
7166	0	32496	
7167	0	32580	
7168	0	32508	
7169	0	32460	
7170	0	32656	
7171	0	32542	
7172	0	32540	
7173	0	32504	
7174	0	32560	
7175	0	32688	
7176	0	32857	
7177	0	32536	
7178	0	32368	
7179	0	32764	
7180	0	33216	
7181	0	33156	
7182	0	33128	
7183	0	32896	
7184	0	32908	
7185	0	33072	
7186	0	33046	
7187	0	32940	
7188	0	32776	
7189	0	32840	
7190	0	32900	
7191	0	33100	
7192	0	33188	
7193	0	33120	
7194	0	32652	
7195	0	32328	
7196	0	32416	
7197	0	32592	
7198	0	32936	
7199	0	32760	
7200	0	32671	
7201	0	32428	
7202	0	32316	
7203	0	32628	
7204	0	32352	
7205	0	32212	
7206	0	32440	
7207	0	32840	
7208	0	33136	
7209	0	33252	
7210	0	33512	
7211	0	33632	
7212	0	33144	
7213	0	32680	
7214	0	32628	
7215	0	32488	
7216	0	32664	
7217	0	32520	
7218	0	32476	
7219	0	32504	
7220	0	32776	
7221	0	32908	
7222	0	32916	
7223	0	32876	
7224	0	32884	
7225	0	33100	
7226	0	33152	
7227	0	32941	
7228	0	32784	
7229	0	32764	
7230	0	32812	
7231	0	32752	
7232	0	32728	
7233	0	32496	
7234	0	32500	
7235	0	32837	
7236	0	32816	
7237	0	32896	
7238	0	32708	
7239	0	32732	
7240	0	32592	
7241	0	32653	
7242	0	32916	
7243	0	32860	
7244	0	32840	
7245	0	32732	
7246	0	32752	
7247	0	32804	
7248	0	32716	
7249	0	32684	
7250	0	32684	
7251	0	32816	
7252	0	32784	
7253	0	32836	
7254	0	32824	
7255	0	32704	
7256	0	32604	
7257	0	32541	
7258	0	32456	
7259	0	32668	
7260	0	32700	
7261	0	32616	
7262	0	32692	
7263	0	33064	
7264	0	33188	
7265	0	32836	
7266	0	32756	
7267	0	33220	
7268	0	33116	
7269	0	32800	
7270	0	32616	
7271	0	32710	
7272	0	33000	
7273	0	32812	
7274	0	32800	
7275	0	32892	
7276	0	32920	
7277	0	32596	
7278	0	32960	
7279	0	33328	
7280	0	32688	
7281	0	32720	
7282	0	32836	
7283	0	32909	
7284	0	32724	
7285	0	32800	
7286	0	32664	
7287	0	32636	
7288	0	32840	
7289	0	32784	
7290	0	32460	
7291	0	32288	
7292	0	32308	
7293	0	32480	
7294	0	32540	
7295	0	32360	
7296	0	32344	
7297	0	32474	
7298	0	32788	
7299	0	33212	
7300	0	33332	
7301	0	33292	
7302	0	33480	
7303	0	33420	
7304	0	33260	
7305	0	32880	
7306	0	32512	
7307	0	32476	
7308	0	32568	
7309	0	32681	
7310	0	32732	
7311	0	32564	
7312	0	32604	
7313	0	32836	
7314	0	33228	
7315	0	33152	
7316	0	32832	
7317	0	32753	
7318	0	32816	
7319	0	32784	
7320	0	32724	
7321	0	32698	
7322	0	32652	
7323	0	32774	
7324	0	32728	
7325	0	32612	
7326	0	32542	
7327	0	32588	
7328	0	32564	
7329	0	32588	
7330	0	32688	
7331	0	32732	
7332	0	32794	
7333	0	32836	
7334	0	32852	
7335	0	33065	
7336	0	33036	
7337	0	32676	
7338	0	32888	
7339	0	32964	
7340	0	32760	
7341	0	32628	
7342	0	32724	
7343	0	32852	
7344	0	33012	
7345	0	32881	
7346	0	32832	
7347	0	32797	
7348	0	32816	
7349	0	33068	
7350	0	32876	
7351	0	32324	
7352	0	32340	
7353	0	32596	
7354	0	32924	
7355	0	32828	
7356	0	32900	
7357	0	32777	
7358	0	32577	
7359	0	32712	
7360	0	32904	
7361	0	32844	
7362	0	33038	
7363	0	33104	
7364	0	33144	
7365	0	32768	
7366	0	32612	
7367	0	32660	
7368	0	32421	
7369	0	32620	
7370	0	32780	
7371	0	32644	
7372	0	32616	
7373	0	32856	
7374	0	32861	
7375	0	32700	
7376	0	32464	
7377	0	32700	
7378	0	32820	
7379	0	33028	
7380	0	33126	
7381	0	32940	
7382	0	32860	
7383	0	32932	
7384	0	32832	
7385	0	32932	
7386	0	32752	
7387	0	32728	
7388	0	32897	
7389	0	32637	
7390	0	32560	
7391	0	32532	
7392	0	32460	
7393	0	32804	
7394	0	32912	
7395	0	32960	
7396	0	33304	
7397	0	33116	
7398	0	32636	
7399	0	32600	
7400	0	32548	
7401	0	32408	
7402	0	32884	
7403	0	33208	
7404	0	32868	
7405	0	32640	
7406	0	32780	
7407	0	32976	
7408	0	33020	
7409	0	32644	
7410	0	32688	
7411	0	32713	
7412	0	32612	
7413	0	32768	
7414	0	33013	
7415	0	32606	
7416	0	32588	
7417	0	32648	
7418	0	32668	
7419	0	32868	
7420	0	32820	
7421	0	32836	
7422	0	32878	
7423	0	32789	
7424	0	32700	
7425	0	32660	
7426	0	32708	
7427	0	32585	
7428	0	32560	
7429	0	32652	
7430	0	32716	
7431	0	32732	
7432	0	32696	
7433	0	32840	
7434	0	32968	
7435	0	33136	
7436	0	33036	
7437	0	32952	
7438	0	32900	
7439	0	32804	
7440	0	32636	
7441	0	32804	
7442	0	32584	
7443	0	32628	
7444	0	32896	
7445	0	33220	
7446	0	32972	
7447	0	32817	
7448	0	33020	
7449	0	32945	
7450	0	32624	
7451	0	32448	
7452	0	32480	
7453	0	32576	
7454	0	32608	
7455	0	32737	
7456	0	32645	
7457	0	32676	
7458	0	32548	
7459	0	32637	
7460	0	32612	
7461	0	32712	
7462	0	32552	
7463	0	32576	
7464	0	32952	
7465	0	33188	
7466	0	33304	
7467	0	32960	
7468	0	32804	
7469	0	33063	
7470	0	33500	
7471	0	33300	
7472	0	33097	
7473	0	32972	
7474	0	32892	
7475	0	33104	
7476	0	32808	
7477	0	32460	
7478	0	32552	
7479	0	32312	
7480	0	32344	
7481	0	32360	
7482	0	32484	
7483	0	32484	
7484	0	32376	
7485	0	32556	
7486	0	32836	
7487	0	32588	
7488	0	32888	
7489	0	32956	
7490	0	32900	
7491	0	32900	
7492	0	33188	
7493	0	32908	
7494	0	32877	
7495	0	32644	
7496	0	32932	
7497	0	32782	
7498	0	32796	
7499	0	32816	
7500	0	32848	
7501	0	32972	
7502	0	32836	
7503	0	32788	
7504	0	32844	
7505	0	32788	
7506	0	32808	
7507	0	32816	
7508	0	32918	
7509	0	32760	
7510	0	32548	
7511	0	32644	
7512	0	32648	
7513	0	32744	
7514	0	32856	
7515	0	32940	
7516	0	32752	
7517	0	32648	
7518	0	32669	
7519	0	32620	
7520	0	32560	
7521	0	32628	
7522	0	32416	
7523	0	32476	
7524	0	32504	
7525	0	32508	
7526	0	32764	
7527	0	32940	
7528	0	33044	
7529	0	33256	
7530	0	33244	
7531	0	33372	
7532	0	33296	
7533	0	33144	
7534	0	32750	
7535	0	32718	
7536	0	32797	
7537	0	32520	
7538	0	32532	
7539	0	32636	
7540	0	32576	
7541	0	32548	
7542	0	32688	
7543	0	32724	
7544	0	32496	
7545	0	32428	
7546	0	32518	
7547	0	32532	
7548	0	32764	
7549	0	32676	
7550	0	32708	
7551	0	32820	
7552	0	33208	
7553	0	33176	
7554	0	33076	
7555	0	33152	
7556	0	32940	
7557	0	33016	
7558	0	32960	
7559	0	32784	
7560	0	32766	
7561	0	32844	
7562	0	32781	
7563	0	32728	
7564	0	32820	
7565	0	32484	
7566	0	32328	
7567	0	32696	
7568	0	32728	
7569	0	32636	
7570	0	32644	
7571	0	32710	
7572	0	32678	
7573	0	32616	
7574	0	32796	
7575	0	32956	
7576	0	32766	
7577	0	32500	
7578	0	32644	
7579	0	32588	
7580	0	32656	
7581	0	32996	
7582	0	33018	
7583	0	33028	
7584	0	32860	
7585	0	33309	
7586	0	33444	
7587	0	33230	
7588	0	33256	
7589	0	32868	
7590	0	32416	
7591	0	32296	
7592	0	32417	
7593	0	32580	
7594	0	32552	
7595	0	32328	
7596	0	32356	
7597	0	32504	
7598	0	32836	
7599	0	33125	
7600	0	33052	
7601	0	33044	
7602	0	33028	
7603	0	33064	
7604	0	33040	
7605	0	32892	
7606	0	32576	
7607	0	32516	
7608	0	32462	
7609	0	32452	
7610	0	32636	
7611	0	32668	
7612	0	32612	
7613	0	32736	
7614	0	32660	
7615	0	32508	
7616	0	32616	
7617	0	32392	
7618	0	32540	
7619	0	32920	
7620	0	33324	
7621	0	33422	
7622	0	33220	
7623	0	32924	
7624	0	33036	
7625	0	33072	
7626	0	33040	
7627	0	32901	
7628	0	32556	
7629	0	32676	
7630	0	32981	
7631	0	33404	
7632	0	33048	
7633	0	32648	
7634	0	32432	
7635	0	32468	
7636	0	32344	
7637	0	32484	
7638	0	32504	
7639	0	32428	
7640	0	32421	
7641	0	32744	
7642	0	33044	
7643	0	33088	
7644	0	32711	
7645	0	32820	
7646	0	32980	
7647	0	32848	
7648	0	32804	
7649	0	32768	
7650	0	32804	
7651	0	32721	
7652	0	32668	
7653	0	32544	
7654	0	32576	
7655	0	32704	
7656	0	32918	
7657	0	33081	
7658	0	33088	
7659	0	32948	
7660	0	32748	
7661	0	32780	
7662	0	32836	
7663	0	32866	
7664	0	32698	
7665	0	33044	
7666	0	32976	
7667	0	32928	
7668	0	32624	
7669	0	32524	
7670	0	32508	
7671	0	32538	
7672	0	32580	
7673	0	32660	
7674	0	32692	
7675	0	32508	
7676	0	32504	
7677	0	32676	
7678	0	32888	
7679	0	32920	
7680	0	32924	
7681	0	32920	
7682	0	32696	
7683	0	32458	
7684	0	32556	
7685	0	32960	
7686	0	33212	
7687	0	33200	
7688	0	33213	
7689	0	33120	
7690	0	33212	
7691	0	33228	
7692	0	32684	
7693	0	32452	
7694	0	32556	
7695	0	32752	
7696	0	32548	
7697	0	32617	
7698	0	32504	
7699	0	32608	
7700	0	32904	
7701	0	32890	
7702	0	32844	
7703	0	32784	
7704	0	32756	
7705	0	32700	
7706	0	32636	
7707	0	32639	
7708	0	32545	
7709	0	32456	
7710	0	32392	
7711	0	32484	
7712	0	32536	
7713	0	32696	
7714	0	32716	
7715	0	32738	
7716	0	32908	
7717	0	33012	
7718	0	33336	
7719	0	33532	
7720	0	33088	
7721	0	33036	
7722	0	33092	
7723	0	32956	
7724	0	32929	
7725	0	32904	
7726	0	32904	
7727	0	32848	
7728	0	32745	
7729	0	32688	
7730	0	32544	
7731	0	32420	
7732	0	32452	
7733	0	32444	
7734	0	32572	
7735	0	32837	
7736	0	32532	
7737	0	32524	
7738	0	32700	
7739	0	32940	
7740	0	32668	
7741	0	32556	
7742	0	32560	
7743	0	32924	
7744	0	33052	
7745	0	32860	
7746	0	32880	
7747	0	33124	
7748	0	33180	
7749	0	33376	
7750	0	33404	
7751	0	33208	
7752	0	32804	
7753	0	32168	
7754	0	32252	
7755	0	32488	
7756	0	32952	
7757	0	32893	
7758	0	32868	
7759	0	32704	
7760	0	32568	
7761	0	32652	
7762	0	32524	
7763	0	32528	
7764	0	32516	
7765	0	32464	
7766	0	32584	
7767	0	32748	
7768	0	32800	
7769	0	32888	
7770	0	32800	
7771	0	32716	
7772	0	32725	
7773	0	32672	
7774	0	33020	
7775	0	33296	
7776	0	33108	
7777	0	33108	
7778	0	33144	
7779	0	33245	
7780	0	32812	
7781	0	32712	
7782	0	32660	
7783	0	32652	
7784	0	32544	
7785	0	32520	
7786	0	32436	
7787	0	32340	
7788	0	32420	
7789	0	32644	
7790	0	32844	
7791	0	32868	
7792	0	32956	
7793	0	33056	
7794	0	33324	
7795	0	33292	
7796	0	33000	
7797	0	32724	
7798	0	32508	
7799	0	32364	
7800	0	32440	
7801	0	32648	
7802	0	32728	
7803	0	32726	
7804	0	32632	
7805	0	32804	
7806	0	32964	
7807	0	32820	
7808	0	32740	
7809	0	32608	
7810	0	32724	
7811	0	33164	
7812	0	33360	
7813	0	33061	
7814	0	33032	
7815	0	32756	
7816	0	32536	
7817	0	32361	
7818	0	32564	
7819	0	32686	
7820	0	32656	
7821	0	32495	
7822	0	32508	
7823	0	33012	
7824	0	32816	
7825	0	32784	
7826	0	33004	
7827	0	33092	
7828	0	32908	
7829	0	32808	
7830	0	33004	
7831	0	33036	
7832	0	33006	
7833	0	32708	
7834	0	32753	
7835	0	32452	
7836	0	32400	
7837	0	32740	
7838	0	32676	
7839	0	32364	
7840	0	32336	
7841	0	32748	
7842	0	32652	
7843	0	32840	
7844	0	33048	
7845	0	33292	
7846	0	33092	
7847	0	33122	
7848	0	32828	
7849	0	32936	
7850	0	32844	
7851	0	32632	
7852	0	32532	
7853	0	32488	
7854	0	32532	
7855	0	32596	
7856	0	32393	
7857	0	32404	
7858	0	32776	
7859	0	32816	
7860	0	32960	
7861	0	32932	
7862	0	32788	
7863	0	32852	
7864	0	33176	
7865	0	33188	
7866	0	32996	
7867	0	32972	
7868	0	32704	
7869	0	32408	
7870	0	32432	
7871	0	32712	
7872	0	32768	
7873	0	32948	
7874	0	32816	
7875	0	32720	
7876	0	32773	
7877	0	32848	
7878	0	32996	
7879	0	32936	
7880	0	32712	
7881	0	32780	
7882	0	32836	
7883	0	32740	
7884	0	32624	
7885	0	32764	
7886	0	32932	
7887	0	32552	
7888	0	32688	
7889	0	32660	
7890	0	32484	
7891	0	32608	
7892	0	32676	
7893	0	32708	
7894	0	32756	
7895	0	32948	
7896	0	32964	
7897	0	33024	
7898	0	33300	
7899	0	32884	
7900	0	32709	
7901	0	32920	
7902	0	32888	
7903	0	32820	
7904	0	32776	
7905	0	32792	
7906	0	32960	
7907	0	32800	
7908	0	32644	
7909	0	32612	
7910	0	32580	
7911	0	32481	
7912	0	32768	
7913	0	32824	
7914	0	32704	
7915	0	32620	
7916	0	32740	
7917	0	32504	
7918	0	32356	
7919	0	32436	
7920	0	32768	
7921	0	32976	
7922	0	32752	
7923	0	32744	
7924	0	33060	
7925	0	33212	
7926	0	33102	
7927	0	32840	
7928	0	32548	
7929	0	32852	
7930	0	33228	
7931	0	33144	
7932	0	33044	
7933	0	33065	
7934	0	32900	
7935	0	32712	
7936	0	32804	
7937	0	32708	
7938	0	32592	
7939	0	32460	
7940	0	32372	
7941	0	32540	
7942	0	32576	
7943	0	32720	
7944	0	32772	
7945	0	32676	
7946	0	32688	
7947	0	32704	
7948	0	32764	
7949	0	32728	
7950	0	32717	
7951	0	32996	
7952	0	33084	
7953	0	32869	
7954	0	32730	
7955	0	32908	
7956	0	32752	
7957	0	32588	
7958	0	32557	
7959	0	32788	
7960	0	32988	
7961	0	32960	
7962	0	32928	
7963	0	32956	
7964	0	32780	
7965	0	33068	
7966	0	33244	
7967	0	32944	
7968	0	32456	
7969	0	32640	
7970	0	32712	
7971	0	32704	
7972	0	32742	
7973	0	33004	
7974	0	32688	
7975	0	32292	
7976	0	32504	
7977	0	32560	
7978	0	32564	
7979	0	32648	
7980	0	32720	
7981	0	32952	
7982	0	33000	
7983	0	32852	
7984	0	32812	
7985	0	32964	
7986	0	32528	
7987	0	32484	
7988	0	32848	
7989	0	32844	
7990	0	32840	
7991	0	32932	
7992	0	32976	
7993	0	32972	
7994	0	33012	
7995	0	33273	
7996	0	33092	
7997	0	32932	
7998	0	32770	
7999	0	32788	
8000	0	32696	
8001	0	32412	
8002	0	32456	
8003	0	32564	
8004	0	32408	
8005	0	32469	
8006	0	32554	
8007	0	32584	
8008	0	32636	
8009	0	32880	
8010	0	33045	
8011	0	33000	
8012	0	33044	
8013	0	32968	
8014	0	32860	
8015	0	32856	
8016	0	32816	
8017	0	32840	
8018	0	32873	
8019	0	32664	
8020	0	32604	
8021	0	32564	
8022	0	32596	
8023	0	32752	
8024	0	32712	
8025	0	32704	
8026	0	32788	
8027	0	32740	
8028	0	32870	
8029	0	32832	
8030	0	32756	
8031	0	32661	
8032	0	32548	
8033	0	32621	
8034	0	32828	
8035	0	32788	
8036	0	32668	
8037	0	32712	
8038	0	33141	
8039	0	33544	
8040	0	33540	
8041	0	33184	
8042	0	33008	
8043	0	32829	
8044	0	32684	
8045	0	32637	
8046	0	32308	
8047	0	32372	
8048	0	32405	
8049	0	32628	
8050	0	32644	
8051	0	32548	
8052	0	32656	
8053	0	32584	
8054	0	32664	
8055	0	32702	
8056	0	32776	
8057	0	32544	
8058	0	32469	
8059	0	32340	
8060	0	32669	
8061	0	33078	
8062	0	33412	
8063	0	33340	
8064	0	33256	
8065	0	33496	
8066	0	33196	
8067	0	32733	
8068	0	32944	
8069	0	32620	
8070	0	32460	
8071	0	32364	
8072	0	32308	
8073	0	32588	
8074	0	32548	
8075	0	32504	
8076	0	32516	
8077	0	32552	
8078	0	32820	
8079	0	32856	
8080	0	32900	
8081	0	33053	
8082	0	33188	
8083	0	33316	
8084	0	33196	
8085	0	33252	
8086	0	32932	
8087	0	32656	
8088	0	32772	
8089	0	32778	
8090	0	32637	
8091	0	32601	
8092	0	32661	
8093	0	32528	
8094	0	32676	
8095	0	32572	
8096	0	32532	
8097	0	32761	
8098	0	32964	
8099	0	32968	
8100	0	32840	
8101	0	32980	
8102	0	32744	
8103	0	32664	
8104	0	32820	
8105	0	32840	
8106	0	32704	
8107	0	32636	
8108	0	32617	
8109	0	32516	
8110	0	32556	
8111	0	32794	
8112	0	32804	
8113	0	32897	
8114	0	32880	
8115	0	32796	
8116	0	32876	
8117	0	32928	
8118	0	32704	
8119	0	32804	
8120	0	32748	
8121	0	32704	
8122	0	32740	
8123	0	32752	
8124	0	32584	
8125	0	32624	
8126	0	32732	
8127	0	32928	
8128	0	32840	
8129	0	33088	
8130	0	33072	
8131	0	32880	
8132	0	32708	
8133	0	32356	
8134	0	32400	
8135	0	32544	
8136	0	32764	
8137	0	33005	
8138	0	33188	
8139	0	33188	
8140	0	32948	
8141	0	32712	
8142	0	32912	
8143	0	32896	
8144	0	32852	
8145	0	32764	
8146	0	32924	
8147	0	32884	
8148	0	32760	
8149	0	32604	
8150	0	32752	
8151	0	32568	
8152	0	32464	
8153	0	32488	
8154	0	32484	
8155	0	32448	
8156	0	32304	
8157	0	32584	
8158	0	32757	
8159	0	33068	
8160	0	33216	
8161	0	33422	
8162	0	33212	
8163	0	32992	
8164	0	33092	
8165	0	32888	
8166	0	32684	
8167	0	32644	
8168	0	32704	
8169	0	32644	
8170	0	32616	
8171	0	32578	
8172	0	32656	
8173	0	32768	
8174	0	32632	
8175	0	32628	
8176	0	32704	
8177	0	32644	
8178	0	32700	
8179	0	32808	
8180	0	32942	
8181	0	33000	
8182	0	32937	
8183	0	32636	
8184	0	32912	
8185	0	33056	
8186	0	32856	
8187	0	32620	
8188	0	32696	
8189	0	32793	
8190	0	32604	
8191	0	32548	
8192	0	32612	
8193	0	32772	
8194	0	33037	
8195	0	33100	
8196	0	32981	
8197	0	32748	
8198	0	32960	
8199	0	32820	
8200	0	32528	
8201	0	32456	
8202	0	32544	
8203	0	32712	
8204	0	32740	
8205	0	32740	
8206	0	32864	
8207	0	32868	
8208	0	32808	
8209	0	32764	
8210	0	32808	
8211	0	32852	
8212	0	32936	
8213	0	32796	
8214	0	32748	
8215	0	32744	
8216	0	32972	
8217	0	32774	
8218	0	32940	
8219	0	32900	
8220	0	32748	
8221	0	32516	
8222	0	32624	
8223	0	32593	
8224	0	32668	
8225	0	32884	
8226	0	32808	
8227	0	32653	
8228	0	32884	
8229	0	33020	
8230	0	32932	
8231	0	32804	
8232	0	32692	
8233	0	32696	
8234	0	32664	
8235	0	32792	
8236	0	32728	
8237	0	32596	
8238	0	32484	
8239	0	32481	
8240	0	32448	
8241	0	32468	
8242	0	32644	
8243	0	32726	
8244	0	32884	
8245	0	33124	
8246	0	33206	
8247	0	32943	
8248	0	32892	
8249	0	33044	
8250	0	33157	
8251	0	33224	
8252	0	33157	
8253	0	32816	
8254	0	32798	
8255	0	32644	
8256	0	32648	
8257	0	32708	
8258	0	32668	
8259	0	32486	
8260	0	32428	
8261	0	32340	
8262	0	32308	
8263	0	32525	
8264	0	32804	
8265	0	32844	
8266	0	32900	
8267	0	32904	
8268	0	32924	
8269	0	32968	
8270	0	32860	
8271	0	32758	
8272	0	32820	
8273	0	32848	
8274	0	32799	
8275	0	32752	
8276	0	32620	
8277	0	32812	
8278	0	32932	
8279	0	32772	
8280	0	32732	
8281	0	32728	
8282	0	33156	
8283	0	33204	
8284	0	32933	
8285	0	32624	
8286	0	32588	
8287	0	32552	
8288	0	32576	
8289	0	32600	
8290	0	32612	
8291	0	32468	
8292	0	32368	
8293	0	32517	
8294	0	32929	
8295	0	33012	
8296	0	33160	
8297	0	33216	
8298	0	32628	
8299	0	32624	
8300	0	33280	
8301	0	33176	
8302	0	32856	
8303	0	33060	
8304	0	33076	
8305	0	32856	
8306	0	32876	
8307	0	32968	
8308	0	33060	
8309	0	33004	
8310	0	32976	
8311	0	32805	
8312	0	32428	
8313	0	32364	
8314	0	32351	
8315	0	32412	
8316	0	32464	
8317	0	32452	
8318	0	32532	
8319	0	32704	
8320	0	32492	
8321	0	32628	
8322	0	32876	
8323	0	33036	
8324	0	32972	
8325	0	32896	
8326	0	32832	
8327	0	32872	
8328	0	33089	
8329	0	32996	
8330	0	32889	
8331	0	32840	
8332	0	32844	
8333	0	32720	
8334	0	32637	
8335	0	32468	
8336	0	32312	
8337	0	32748	
8338	0	32926	
8339	0	32964	
8340	0	32748	
8341	0	32728	
8342	0	32800	
8343	0	32788	
8344	0	32678	
8345	0	32584	
8346	0	32540	
8347	0	32670	
8348	0	32977	
8349	0	33198	
8350	0	32717	
8351	0	32792	
8352	0	33012	
8353	0	33140	
8354	0	32988	
8355	0	33068	
8356	0	33012	
8357	0	32676	
8358	0	32549	
8359	0	32508	
8360	0	32452	
8361	0	32596	
8362	0	32556	
8363	0	32545	
8364	0	32756	
8365	0	33016	
8366	0	33080	
8367	0	33108	
8368	0	33151	
8369	0	33080	
8370	0	32878	
8371	0	32789	
8372	0	32620	
8373	0	32528	
8374	0	32548	
8375	0	32600	
8376	0	32576	
8377	0	32670	
8378	0	32596	
8379	0	32584	
8380	0	32632	
8381	0	32436	
8382	0	32381	
8383	0	32580	
8384	0	32888	
8385	0	33177	
8386	0	33088	
8387	0	33092	
8388	0	32956	
8389	0	33052	
8390	0	32908	
8391	0	32660	
8392	0	32820	
8393	0	33061	
8394	0	32894	
8395	0	32612	
8396	0	32768	
8397	0	32756	
8398	0	32956	
8399	0	32805	
8400	0	32660	
8401	0	32764	
8402	0	32775	
8403	0	32680	
8404	0	32616	
8405	0	32505	
8406	0	32700	
8407	0	32800	
8408	0	32804	
8409	0	32684	
8410	0	32856	
8411	0	33080	
8412	0	33084	
8413	0	32676	
8414	0	32454	
8415	0	32593	
8416	0	32356	
8417	0	32380	
8418	0	32372	
8419	0	32680	
8420	0	32730	
8421	0	32790	
8422	0	32948	
8423	0	33096	
8424	0	33148	
8425	0	33100	
8426	0	33456	
8427	0	33957	
8428	0	33396	
8429	0	32976	
8430	0	32812	
8431	0	32744	
8432	0	32608	
8433	0	32522	
8434	0	32357	
8435	0	32168	
8436	0	32425	
8437	0	32552	
8438	0	32676	
8439	0	32828	
8440	0	32901	
8441	0	32680	
8442	0	32592	
8443	0	32584	
8444	0	32664	
8445	0	32612	
8446	0	32652	
8447	0	32655	
8448	0	32584	
8449	0	32545	
8450	0	32520	
8451	0	32468	
8452	0	32688	
8453	0	32908	
8454	0	32940	
8455	0	33004	
8456	0	32964	
8457	0	33096	
8458	0	33252	
8459	0	33128	
8460	0	32952	
8461	0	33072	
8462	0	33308	
8463	0	33152	
8464	0	33012	
8465	0	32789	
8466	0	32584	
8467	0	32604	
8468	0	32500	
8469	0	32476	
8470	0	32460	
8471	0	32684	
8472	0	32636	
8473	0	32712	
8474	0	32676	
8475	0	32596	
8476	0	32496	
8477	0	32536	
8478	0	32652	
8479	0	32613	
8480	0	32813	
8481	0	32888	
8482	0	32760	
8483	0	32872	
8484	0	32865	
8485	0	33056	
8486	0	32980	
8487	0	32908	
8488	0	32968	
8489	0	32600	
8490	0	32568	
8491	0	32524	
8492	0	32436	
8493	0	32616	
8494	0	32820	
8495	0	32908	
8496	0	32936	
8497	0	33012	
8498	0	33240	
8499	0	33196	
8500	0	33191	
8501	0	32984	
8502	0	32692	
8503	0	32644	
8504	0	32464	
8505	0	32224	
8506	0	32508	
8507	0	32604	
8508	0	32645	
8509	0	32484	
8510	0	32496	
8511	0	32824	
8512	0	32940	
8513	0	32684	
8514	0	32816	
8515	0	33528	
8516	0	33608	
8517	0	33104	
8518	0	32765	
8519	0	32792	
8520	0	32660	
8521	0	32570	
8522	0	32636	
8523	0	32716	
8524	0	32800	
8525	0	32764	
8526	0	32756	
8527	0	32588	
8528	0	32628	
8529	0	32688	
8530	0	32672	
8531	0	32816	
8532	0	32700	
8533	0	32696	
8534	0	32686	
8535	0	32681	
8536	0	32694	
8537	0	32728	
8538	0	32740	
8539	0	32668	
8540	0	32608	
8541	0	32896	
8542	0	33134	
8543	0	33212	
8544	0	33004	
8545	0	32728	
8546	0	32948	
8547	0	32852	
8548	0	32672	
8549	0	32772	
8550	0	32828	
8551	0	32908	
8552	0	32908	
8553	0	32772	
8554	0	32636	
8555	0	32460	
8556	0	32396	
8557	0	32481	
8558	0	32596	
8559	0	32628	
8560	0	32716	
8561	0	32812	
8562	0	33068	
8563	0	33004	
8564	0	32828	
8565	0	32756	
8566	0	32762	
8567	0	32640	
8568	0	32461	
8569	0	32460	
8570	0	32428	
8571	0	32436	
8572	0	32504	
8573	0	32572	
8574	0	33137	
8575	0	33188	
8576	0	33184	
8577	0	33037	
8578	0	32988	
8579	0	33340	
8580	0	33272	
8581	0	32908	
8582	0	32900	
8583	0	33145	
8584	0	33136	
8585	0	32848	
8586	0	32628	
8587	0	32472	
8588	0	32472	
8589	0	32500	
8590	0	32252	
8591	0	32444	
8592	0	32957	
8593	0	33120	
8594	0	32944	
8595	0	33221	
8596	0	33344	
8597	0	33012	
8598	0	32788	
8599	0	32800	
8600	0	32532	
8601	0	32260	
8602	0	32392	
8603	0	32616	
8604	0	32636	
8605	0	32568	
8606	0	32776	
8607	0	32796	
8608	0	32808	
8609	0	32884	
8610	0	32776	
8611	0	32776	
8612	0	32844	
