# OpenSignals Text File Format. Version 1
# {"00:07:80:4D:2E:9E": {"position": 0, "device": "biosignalsplux", "device name": "00:07:80:4D:2E:9E", "device connection": "BTH00:07:80:4D:2E:9E", "sampling rate": 1000, "resolution": [16], "firmware version": 774, "comments": "", "keywords": "", "mode": 0, "sync interval": 2, "date": "2020-7-9", "time": "17:56:24.80", "channels": [1], "sensor": ["EMG"], "label": ["CH1"], "column": ["nSeq", "DI", "CH1"], "special": [{}], "digital IO": [0, 1]}}
# EndOfHeader
0	0	33092	
1	0	33012	
2	0	32296	
3	0	32125	
4	0	32464	
5	0	32904	
6	0	33344	
7	0	33204	
8	0	31824	
9	0	32180	
10	0	32932	
11	0	33536	
12	0	33892	
13	0	34060	
14	0	33756	
15	0	33748	
16	0	33608	
17	0	33380	
18	0	33060	
19	0	32678	
20	0	32612	
21	0	32668	
22	0	32360	
23	0	32120	
24	0	32188	
25	0	32252	
26	0	32168	
27	0	32208	
28	0	32660	
29	0	32688	
30	0	32612	
31	0	32796	
32	0	32998	
33	0	32812	
34	0	32441	
35	0	32528	
36	0	32716	
37	0	33156	
38	0	33176	
39	0	32741	
40	0	32620	
41	0	32677	
42	0	32864	
43	0	32800	
44	0	32780	
45	0	32796	
46	0	32673	
47	0	32724	
48	0	32808	
49	0	32732	
50	0	32600	
51	0	31756	
52	0	31508	
53	0	32016	
54	0	32868	
55	0	33384	
56	0	33340	
57	0	33708	
58	0	33808	
59	0	33661	
60	0	32912	
61	0	32084	
62	0	31998	
63	0	32500	
64	0	32856	
65	0	33156	
66	0	33468	
67	0	33756	
68	0	33876	
69	0	33708	
70	0	33366	
71	0	32916	
72	0	32829	
73	0	32608	
74	0	32453	
75	0	32576	
76	0	32528	
77	0	32304	
78	0	32192	
79	0	32344	
80	0	32404	
81	0	32472	
82	0	32484	
83	0	32608	
84	0	32568	
85	0	32416	
86	0	32532	
87	0	32840	
88	0	32792	
89	0	32384	
90	0	32436	
91	0	32680	
92	0	32700	
93	0	32768	
94	0	33028	
95	0	33196	
96	0	33232	
97	0	33528	
98	0	33324	
99	0	32900	
100	0	32688	
101	0	32368	
102	0	32260	
103	0	32700	
104	0	32928	
105	0	32862	
106	0	32756	
107	0	32489	
108	0	32232	
109	0	32301	
110	0	32706	
111	0	32876	
112	0	32988	
113	0	33220	
114	0	33312	
115	0	33456	
116	0	33364	
117	0	33220	
118	0	32896	
119	0	32738	
120	0	32712	
121	0	32472	
122	0	32236	
123	0	32292	
124	0	32528	
125	0	32620	
126	0	32696	
127	0	32516	
128	0	32636	
129	0	32760	
130	0	32832	
131	0	32718	
132	0	32729	
133	0	32948	
134	0	33148	
135	0	33124	
136	0	33056	
137	0	33076	
138	0	32864	
139	0	32596	
140	0	32728	
141	0	32712	
142	0	32694	
143	0	32952	
144	0	33136	
145	0	32840	
146	0	32624	
147	0	32532	
148	0	32152	
149	0	32176	
150	0	32624	
151	0	32864	
152	0	32752	
153	0	32464	
154	0	32456	
155	0	32800	
156	0	32732	
157	0	32202	
158	0	32236	
159	0	32412	
160	0	32248	
161	0	32088	
162	0	32432	
163	0	32940	
164	0	33428	
165	0	33852	
166	0	34120	
167	0	34180	
168	0	33844	
169	0	33456	
170	0	33504	
171	0	33330	
172	0	33092	
173	0	33160	
174	0	32908	
175	0	32365	
176	0	32440	
177	0	32506	
178	0	32388	
179	0	32244	
180	0	32360	
181	0	32465	
182	0	32560	
183	0	32516	
184	0	32492	
185	0	32288	
186	0	32352	
187	0	32468	
188	0	32492	
189	0	32660	
190	0	32741	
191	0	32588	
192	0	32685	
193	0	32764	
194	0	32956	
195	0	32860	
196	0	33084	
197	0	33052	
198	0	33312	
199	0	33352	
200	0	32936	
201	0	32644	
202	0	32524	
203	0	32636	
204	0	32588	
205	0	32592	
206	0	32556	
207	0	32688	
208	0	32776	
209	0	32677	
210	0	32732	
211	0	32628	
212	0	32676	
213	0	32732	
214	0	32912	
215	0	33184	
216	0	33252	
217	0	33216	
218	0	33112	
219	0	32943	
220	0	32685	
221	0	32368	
222	0	31948	
223	0	32348	
224	0	32824	
225	0	33056	
226	0	33036	
227	0	32830	
228	0	32724	
229	0	32640	
230	0	32636	
231	0	32628	
232	0	32740	
233	0	32980	
234	0	33008	
235	0	32864	
236	0	32816	
237	0	32984	
238	0	32909	
239	0	32976	
240	0	32964	
241	0	32692	
242	0	32613	
243	0	32536	
244	0	32496	
245	0	32348	
246	0	32384	
247	0	32400	
248	0	32748	
249	0	32600	
250	0	32588	
251	0	33072	
252	0	33664	
253	0	33656	
254	0	32908	
255	0	32312	
256	0	32348	
257	0	32820	
258	0	32853	
259	0	32596	
260	0	32688	
261	0	32964	
262	0	33084	
263	0	33164	
264	0	32936	
265	0	32864	
266	0	32812	
267	0	32552	
268	0	32348	
269	0	32400	
270	0	32644	
271	0	32652	
272	0	32900	
273	0	33060	
274	0	33008	
275	0	32840	
276	0	32592	
277	0	32760	
278	0	32740	
279	0	32680	
280	0	32612	
281	0	32616	
282	0	32684	
283	0	32816	
284	0	32893	
285	0	32864	
286	0	32732	
287	0	32644	
288	0	32605	
289	0	32685	
290	0	32820	
291	0	32764	
292	0	32788	
293	0	32860	
294	0	32908	
295	0	33000	
296	0	32920	
297	0	32932	
298	0	32816	
299	0	32808	
300	0	32677	
301	0	32624	
302	0	32760	
303	0	32844	
304	0	32864	
305	0	32727	
306	0	32504	
307	0	32452	
308	0	32336	
309	0	32452	
310	0	32604	
311	0	32810	
312	0	33024	
313	0	33144	
314	0	33220	
315	0	33352	
316	0	33390	
317	0	33270	
318	0	33086	
319	0	32804	
320	0	32592	
321	0	32128	
322	0	32072	
323	0	32480	
324	0	32850	
325	0	32928	
326	0	32892	
327	0	32644	
328	0	32672	
329	0	32776	
330	0	32552	
331	0	32598	
332	0	32532	
333	0	32792	
334	0	33088	
335	0	32912	
336	0	32552	
337	0	32624	
338	0	33324	
339	0	33220	
340	0	32940	
341	0	33104	
342	0	32636	
343	0	32416	
344	0	32624	
345	0	32664	
346	0	32820	
347	0	32512	
348	0	32441	
349	0	32588	
350	0	32968	
351	0	32964	
352	0	32703	
353	0	32790	
354	0	32820	
355	0	32872	
356	0	32836	
357	0	32880	
358	0	32948	
359	0	32752	
360	0	32940	
361	0	32896	
362	0	32684	
363	0	32700	
364	0	32668	
365	0	32740	
366	0	32660	
367	0	32684	
368	0	32616	
369	0	32748	
370	0	32880	
371	0	32780	
372	0	32872	
373	0	32564	
374	0	32248	
375	0	32628	
376	0	32900	
377	0	32936	
378	0	33096	
379	0	33172	
380	0	33208	
381	0	33096	
382	0	32980	
383	0	32820	
384	0	32724	
385	0	32714	
386	0	32644	
387	0	32616	
388	0	32656	
389	0	32700	
390	0	32616	
391	0	32429	
392	0	32484	
393	0	32796	
394	0	32996	
395	0	33072	
396	0	32876	
397	0	32876	
398	0	32880	
399	0	32708	
400	0	32704	
401	0	32853	
402	0	32828	
403	0	32608	
404	0	32676	
405	0	32801	
406	0	32688	
407	0	32576	
408	0	32760	
409	0	33020	
410	0	33024	
411	0	32665	
412	0	32888	
413	0	32752	
414	0	33028	
415	0	33391	
416	0	32893	
417	0	32304	
418	0	32020	
419	0	32528	
420	0	32860	
421	0	32904	
422	0	32732	
423	0	32753	
424	0	32844	
425	0	32752	
426	0	32548	
427	0	32464	
428	0	32822	
429	0	32956	
430	0	33077	
431	0	32840	
432	0	32660	
433	0	32772	
434	0	32828	
435	0	33040	
436	0	32764	
437	0	32808	
438	0	32880	
439	0	32912	
440	0	32900	
441	0	32444	
442	0	32160	
443	0	32248	
444	0	32606	
445	0	32916	
446	0	33212	
447	0	33010	
448	0	32972	
449	0	32972	
450	0	33097	
451	0	33076	
452	0	32836	
453	0	32800	
454	0	32820	
455	0	32848	
456	0	32816	
457	0	32920	
458	0	32860	
459	0	32632	
460	0	32438	
461	0	32536	
462	0	32592	
463	0	32636	
464	0	32636	
465	0	32548	
466	0	32647	
467	0	32804	
468	0	32776	
469	0	32848	
470	0	32857	
471	0	32820	
472	0	32820	
473	0	32976	
474	0	33040	
475	0	32852	
476	0	32833	
477	0	32812	
478	0	32748	
479	0	32824	
480	0	33068	
481	0	33128	
482	0	32984	
483	0	32504	
484	0	32044	
485	0	32252	
486	0	32620	
487	0	32552	
488	0	32556	
489	0	32669	
490	0	32984	
491	0	32862	
492	0	32804	
493	0	32972	
494	0	32888	
495	0	33104	
496	0	33144	
497	0	33056	
498	0	32728	
499	0	32544	
500	0	32800	
501	0	33076	
502	0	33072	
503	0	32708	
504	0	32632	
505	0	32564	
506	0	32436	
507	0	32564	
508	0	32773	
509	0	32544	
510	0	32528	
511	0	32736	
512	0	33052	
513	0	32996	
514	0	32768	
515	0	32829	
516	0	32952	
517	0	33161	
518	0	33116	
519	0	32788	
520	0	32560	
521	0	32744	
522	0	32742	
523	0	32556	
524	0	32628	
525	0	32632	
526	0	32660	
527	0	32752	
528	0	32752	
529	0	32775	
530	0	32852	
531	0	32660	
532	0	32740	
533	0	32832	
534	0	32940	
535	0	32920	
536	0	32972	
537	0	33012	
538	0	32964	
539	0	32852	
540	0	32796	
541	0	32656	
542	0	32621	
543	0	32704	
544	0	32788	
545	0	32724	
546	0	32600	
547	0	32552	
548	0	32544	
549	0	32700	
550	0	32912	
551	0	32684	
552	0	32652	
553	0	32768	
554	0	32904	
555	0	32976	
556	0	32716	
557	0	32792	
558	0	32949	
559	0	32912	
560	0	32932	
561	0	32788	
562	0	32788	
563	0	32876	
564	0	32792	
565	0	33020	
566	0	32709	
567	0	32488	
568	0	32538	
569	0	32541	
570	0	32688	
571	0	32792	
572	0	32752	
573	0	32744	
574	0	32724	
575	0	32812	
576	0	32982	
577	0	32976	
578	0	32828	
579	0	32984	
580	0	32892	
581	0	32940	
582	0	33016	
583	0	33024	
584	0	32796	
585	0	32544	
586	0	32596	
587	0	32692	
588	0	32668	
589	0	32464	
590	0	32312	
591	0	32288	
592	0	32824	
593	0	32901	
594	0	32944	
595	0	32932	
596	0	32884	
597	0	32775	
598	0	32928	
599	0	32976	
600	0	32993	
601	0	32909	
602	0	32900	
603	0	32796	
604	0	32604	
605	0	32585	
606	0	32737	
607	0	32752	
608	0	32712	
609	0	32644	
610	0	32648	
611	0	32888	
612	0	32860	
613	0	32716	
614	0	32776	
615	0	32860	
616	0	32888	
617	0	32808	
618	0	32774	
619	0	32780	
620	0	32792	
621	0	32876	
622	0	32924	
623	0	32896	
624	0	32745	
625	0	32804	
626	0	32428	
627	0	32464	
628	0	32584	
629	0	32636	
630	0	32660	
631	0	32860	
632	0	32912	
633	0	32896	
634	0	32992	
635	0	33044	
636	0	32988	
637	0	33036	
638	0	32928	
639	0	32820	
640	0	32688	
641	0	32484	
642	0	32460	
643	0	32728	
644	0	32996	
645	0	33028	
646	0	32728	
647	0	32436	
648	0	32468	
649	0	32632	
650	0	32732	
651	0	32601	
652	0	32618	
653	0	32749	
654	0	32904	
655	0	33080	
656	0	32844	
657	0	32828	
658	0	32944	
659	0	33036	
660	0	32932	
661	0	32908	
662	0	32824	
663	0	32708	
664	0	32582	
665	0	32460	
666	0	32668	
667	0	32976	
668	0	32900	
669	0	33088	
670	0	33252	
671	0	32276	
672	0	31676	
673	0	32276	
674	0	32712	
675	0	33060	
676	0	32996	
677	0	33192	
678	0	32980	
679	0	32908	
680	0	32892	
681	0	32772	
682	0	32816	
683	0	32844	
684	0	32808	
685	0	32841	
686	0	32656	
687	0	32632	
688	0	32700	
689	0	32680	
690	0	32588	
691	0	32664	
692	0	32944	
693	0	32904	
694	0	32922	
695	0	32984	
696	0	32964	
697	0	32948	
698	0	32928	
699	0	32904	
700	0	32800	
701	0	32760	
702	0	32592	
703	0	32644	
704	0	32644	
705	0	32349	
706	0	32222	
707	0	32836	
708	0	32840	
709	0	32660	
710	0	32752	
711	0	32720	
712	0	32692	
713	0	32840	
714	0	32960	
715	0	33036	
716	0	33096	
717	0	33072	
718	0	32936	
719	0	32936	
720	0	32840	
721	0	32612	
722	0	32588	
723	0	32752	
724	0	32924	
725	0	33000	
726	0	32740	
727	0	32708	
728	0	32748	
729	0	32540	
730	0	32520	
731	0	32564	
732	0	32704	
733	0	32672	
734	0	32812	
735	0	32632	
736	0	32856	
737	0	33110	
738	0	33060	
739	0	32852	
740	0	32856	
741	0	32740	
742	0	32588	
743	0	32844	
744	0	33016	
745	0	32736	
746	0	32580	
747	0	32524	
748	0	32596	
749	0	32568	
750	0	32780	
751	0	32732	
752	0	32832	
753	0	32982	
754	0	33024	
755	0	32968	
756	0	32980	
757	0	33101	
758	0	33110	
759	0	32848	
760	0	32604	
761	0	32597	
762	0	32516	
763	0	32684	
764	0	32640	
765	0	32728	
766	0	32576	
767	0	32484	
768	0	32428	
769	0	32560	
770	0	32896	
771	0	33084	
772	0	33076	
773	0	32704	
774	0	32726	
775	0	32808	
776	0	32968	
777	0	33004	
778	0	33048	
779	0	32876	
780	0	32656	
781	0	32804	
782	0	32892	
783	0	32804	
784	0	32684	
785	0	32684	
786	0	32660	
787	0	32784	
788	0	32988	
789	0	32852	
790	0	32964	
791	0	32896	
792	0	32502	
793	0	32380	
794	0	32356	
795	0	32519	
796	0	32684	
797	0	32888	
798	0	32812	
799	0	32864	
800	0	32912	
801	0	33040	
802	0	32772	
803	0	32796	
804	0	32936	
805	0	32812	
806	0	32704	
807	0	32748	
808	0	32764	
809	0	32724	
810	0	32812	
811	0	32572	
812	0	32564	
813	0	32696	
814	0	32988	
815	0	33112	
816	0	33108	
817	0	32936	
818	0	32680	
819	0	32688	
820	0	32760	
821	0	32956	
822	0	32872	
823	0	32710	
824	0	32520	
825	0	32592	
826	0	32568	
827	0	32600	
828	0	32768	
829	0	32824	
830	0	32684	
831	0	32468	
832	0	32620	
833	0	32776	
834	0	32996	
835	0	33024	
836	0	33068	
837	0	32988	
838	0	33004	
839	0	32821	
840	0	32780	
841	0	32852	
842	0	32996	
843	0	33036	
844	0	32884	
845	0	32776	
846	0	32904	
847	0	32736	
848	0	32332	
849	0	32004	
850	0	32080	
851	0	32350	
852	0	32784	
853	0	32952	
854	0	32945	
855	0	33284	
856	0	33120	
857	0	32888	
858	0	32688	
859	0	32576	
860	0	32824	
861	0	32804	
862	0	32775	
863	0	32840	
864	0	32896	
865	0	32872	
866	0	32736	
867	0	32644	
868	0	32650	
869	0	32624	
870	0	32860	
871	0	32896	
872	0	33016	
873	0	32848	
874	0	32708	
875	0	33008	
876	0	32969	
877	0	32616	
878	0	32692	
879	0	33032	
880	0	32857	
881	0	32792	
882	0	32844	
883	0	32756	
884	0	32620	
885	0	32652	
886	0	32712	
887	0	32760	
888	0	32492	
889	0	32576	
890	0	32620	
891	0	32564	
892	0	32812	
893	0	32960	
894	0	33016	
895	0	33104	
896	0	32920	
897	0	32876	
898	0	32908	
899	0	32564	
900	0	32453	
901	0	32744	
902	0	33040	
903	0	33028	
904	0	32700	
905	0	32588	
906	0	32500	
907	0	32592	
908	0	32812	
909	0	33052	
910	0	32533	
911	0	32612	
912	0	32916	
913	0	33136	
914	0	33216	
915	0	33128	
916	0	32844	
917	0	32564	
918	0	32252	
919	0	32320	
920	0	32770	
921	0	32704	
922	0	32876	
923	0	32804	
924	0	32612	
925	0	32653	
926	0	32568	
927	0	32672	
928	0	32780	
929	0	32828	
930	0	32804	
931	0	32964	
932	0	33008	
933	0	32756	
934	0	32896	
935	0	33044	
936	0	32804	
937	0	32764	
938	0	33096	
939	0	33100	
940	0	32884	
941	0	32588	
942	0	32784	
943	0	32701	
944	0	32537	
945	0	32676	
946	0	32560	
947	0	32548	
948	0	32718	
949	0	32784	
950	0	32932	
951	0	32596	
952	0	32622	
953	0	32704	
954	0	32912	
955	0	33229	
956	0	33128	
957	0	33024	
958	0	32752	
959	0	32684	
960	0	32568	
961	0	32784	
962	0	32904	
963	0	32712	
964	0	32656	
965	0	32984	
966	0	33204	
967	0	33112	
968	0	32344	
969	0	31916	
970	0	32244	
971	0	32464	
972	0	32432	
973	0	32714	
974	0	32932	
975	0	33052	
976	0	32980	
977	0	32988	
978	0	32921	
979	0	32972	
980	0	32937	
981	0	33008	
982	0	33045	
983	0	32800	
984	0	32652	
985	0	32692	
986	0	32694	
987	0	32652	
988	0	32592	
989	0	32437	
990	0	32624	
991	0	32668	
992	0	32820	
993	0	32836	
994	0	32916	
995	0	33128	
996	0	33164	
997	0	32956	
998	0	32864	
999	0	32850	
1000	0	32700	
1001	0	32748	
1002	0	32712	
1003	0	32721	
1004	0	32788	
1005	0	32644	
1006	0	32612	
1007	0	32581	
1008	0	32616	
1009	0	32776	
1010	0	32848	
1011	0	32928	
1012	0	32877	
1013	0	32536	
1014	0	32516	
1015	0	32632	
1016	0	32960	
1017	0	33340	
1018	0	33036	
1019	0	32620	
1020	0	32596	
1021	0	32956	
1022	0	32948	
1023	0	32820	
1024	0	32464	
1025	0	32620	
1026	0	32584	
1027	0	32660	
1028	0	32736	
1029	0	32812	
1030	0	32788	
1031	0	32784	
1032	0	32696	
1033	0	32644	
1034	0	32908	
1035	0	33208	
1036	0	33396	
1037	0	33102	
1038	0	32624	
1039	0	32656	
1040	0	32736	
1041	0	32528	
1042	0	32576	
1043	0	32620	
1044	0	32625	
1045	0	32684	
1046	0	32628	
1047	0	32664	
1048	0	32704	
1049	0	32828	
1050	0	32788	
1051	0	32772	
1052	0	32692	
1053	0	32782	
1054	0	32841	
1055	0	32837	
1056	0	33044	
1057	0	32924	
1058	0	33124	
1059	0	32928	
1060	0	32792	
1061	0	32612	
1062	0	32488	
1063	0	32968	
1064	0	33000	
1065	0	32856	
1066	0	32886	
1067	0	32692	
1068	0	32612	
1069	0	32796	
1070	0	32632	
1071	0	32532	
1072	0	32510	
1073	0	32456	
1074	0	32564	
1075	0	33064	
1076	0	33229	
1077	0	33140	
1078	0	33188	
1079	0	32888	
1080	0	32196	
1081	0	32436	
1082	0	32800	
1083	0	32588	
1084	0	32540	
1085	0	32956	
1086	0	32789	
1087	0	32652	
1088	0	32676	
1089	0	32684	
1090	0	32824	
1091	0	32864	
1092	0	32876	
1093	0	32964	
1094	0	33040	
1095	0	32988	
1096	0	33040	
1097	0	32952	
1098	0	32820	
1099	0	32868	
1100	0	32848	
1101	0	32820	
1102	0	32740	
1103	0	32622	
1104	0	32616	
1105	0	32792	
1106	0	32688	
1107	0	32564	
1108	0	32488	
1109	0	32732	
1110	0	32828	
1111	0	33108	
1112	0	32728	
1113	0	32568	
1114	0	32608	
1115	0	32880	
1116	0	33094	
1117	0	32932	
1118	0	32852	
1119	0	32928	
1120	0	32805	
1121	0	32584	
1122	0	32957	
1123	0	32896	
1124	0	32568	
1125	0	32885	
1126	0	32866	
1127	0	32540	
1128	0	32604	
1129	0	32656	
1130	0	32528	
1131	0	32396	
1132	0	32868	
1133	0	33064	
1134	0	33016	
1135	0	33092	
1136	0	32976	
1137	0	33014	
1138	0	32720	
1139	0	32502	
1140	0	32486	
1141	0	32902	
1142	0	33052	
1143	0	32960	
1144	0	32828	
1145	0	32436	
1146	0	32244	
1147	0	32352	
1148	0	32864	
1149	0	32832	
1150	0	32990	
1151	0	32692	
1152	0	32608	
1153	0	32672	
1154	0	32852	
1155	0	32992	
1156	0	33077	
1157	0	32880	
1158	0	32960	
1159	0	32952	
1160	0	32764	
1161	0	32832	
1162	0	32973	
1163	0	33024	
1164	0	32852	
1165	0	32908	
1166	0	32752	
1167	0	32584	
1168	0	32333	
1169	0	32500	
1170	0	32516	
1171	0	32600	
1172	0	32644	
1173	0	32804	
1174	0	32976	
1175	0	32996	
1176	0	33072	
1177	0	32968	
1178	0	32868	
1179	0	32908	
1180	0	33008	
1181	0	33056	
1182	0	32664	
1183	0	32268	
1184	0	32456	
1185	0	32716	
1186	0	32420	
1187	0	32384	
1188	0	32568	
1189	0	32872	
1190	0	32976	
1191	0	32896	
1192	0	33076	
1193	0	33229	
1194	0	32944	
1195	0	32712	
1196	0	32704	
1197	0	32564	
1198	0	32469	
1199	0	32604	
1200	0	32744	
1201	0	32604	
1202	0	32644	
1203	0	32900	
1204	0	32896	
1205	0	32844	
1206	0	32636	
1207	0	32614	
1208	0	32744	
1209	0	33020	
1210	0	32892	
1211	0	32808	
1212	0	32432	
1213	0	32493	
1214	0	32784	
1215	0	33113	
1216	0	33188	
1217	0	32868	
1218	0	32766	
1219	0	32980	
1220	0	33040	
1221	0	32492	
1222	0	32532	
1223	0	32692	
1224	0	32792	
1225	0	32868	
1226	0	32894	
1227	0	32880	
1228	0	32564	
1229	0	32549	
1230	0	32544	
1231	0	32720	
1232	0	32796	
1233	0	32677	
1234	0	32852	
1235	0	32928	
1236	0	32996	
1237	0	32744	
1238	0	32972	
1239	0	32928	
1240	0	32744	
1241	0	32704	
1242	0	32780	
1243	0	32816	
1244	0	32820	
1245	0	32708	
1246	0	32600	
1247	0	32608	
1248	0	32692	
1249	0	32786	
1250	0	32832	
1251	0	32833	
1252	0	32748	
1253	0	32688	
1254	0	32764	
1255	0	32952	
1256	0	33064	
1257	0	33268	
1258	0	33200	
1259	0	33108	
1260	0	33064	
1261	0	32270	
1262	0	31864	
1263	0	32268	
1264	0	32836	
1265	0	33230	
1266	0	32876	
1267	0	32484	
1268	0	32396	
1269	0	32484	
1270	0	32516	
1271	0	32748	
1272	0	32996	
1273	0	32960	
1274	0	32972	
1275	0	32804	
1276	0	32728	
1277	0	32812	
1278	0	32932	
1279	0	32800	
1280	0	32676	
1281	0	32764	
1282	0	33116	
1283	0	32872	
1284	0	32776	
1285	0	33016	
1286	0	32920	
1287	0	32660	
1288	0	32452	
1289	0	32444	
1290	0	32556	
1291	0	32752	
1292	0	32900	
1293	0	32712	
1294	0	32784	
1295	0	33032	
1296	0	33160	
1297	0	33140	
1298	0	32904	
1299	0	32640	
1300	0	32604	
1301	0	32484	
1302	0	32638	
1303	0	32796	
1304	0	32840	
1305	0	32889	
1306	0	32780	
1307	0	32640	
1308	0	32564	
1309	0	32644	
1310	0	32796	
1311	0	32772	
1312	0	32725	
1313	0	32704	
1314	0	32748	
1315	0	32848	
1316	0	32952	
1317	0	33184	
1318	0	33256	
1319	0	32808	
1320	0	32725	
1321	0	32580	
1322	0	32788	
1323	0	33052	
1324	0	32645	
1325	0	32526	
1326	0	32508	
1327	0	32596	
1328	0	32793	
1329	0	32656	
1330	0	32444	
1331	0	32508	
1332	0	32760	
1333	0	32956	
1334	0	33136	
1335	0	33336	
1336	0	33188	
1337	0	32696	
1338	0	32518	
1339	0	32548	
1340	0	32840	
1341	0	32916	
1342	0	32772	
1343	0	32752	
1344	0	32796	
1345	0	32784	
1346	0	32656	
1347	0	32656	
1348	0	32753	
1349	0	32920	
1350	0	32596	
1351	0	32636	
1352	0	32590	
1353	0	32648	
1354	0	32816	
1355	0	33076	
1356	0	33269	
1357	0	33132	
1358	0	33400	
1359	0	32832	
1360	0	32392	
1361	0	32516	
1362	0	32884	
1363	0	32744	
1364	0	32508	
1365	0	32656	
1366	0	32736	
1367	0	32664	
1368	0	32496	
1369	0	32476	
1370	0	32792	
1371	0	32800	
1372	0	32884	
1373	0	32797	
1374	0	32628	
1375	0	32760	
1376	0	32952	
1377	0	32980	
1378	0	33024	
1379	0	33028	
1380	0	33036	
1381	0	33000	
1382	0	32968	
1383	0	32672	
1384	0	32516	
1385	0	32728	
1386	0	32940	
1387	0	32692	
1388	0	32576	
1389	0	32337	
1390	0	32524	
1391	0	32664	
1392	0	32736	
1393	0	32872	
1394	0	33004	
1395	0	32828	
1396	0	32916	
1397	0	32961	
1398	0	32936	
1399	0	32964	
1400	0	32988	
1401	0	32644	
1402	0	32528	
1403	0	32740	
1404	0	32716	
1405	0	32664	
1406	0	32736	
1407	0	32592	
1408	0	32732	
1409	0	32910	
1410	0	32740	
1411	0	32688	
1412	0	32744	
1413	0	32776	
1414	0	32812	
1415	0	32928	
1416	0	32997	
1417	0	33084	
1418	0	32964	
1419	0	32692	
1420	0	32685	
1421	0	32900	
1422	0	32824	
1423	0	32740	
1424	0	32808	
1425	0	32800	
1426	0	32736	
1427	0	32496	
1428	0	32620	
1429	0	32740	
1430	0	32748	
1431	0	33044	
1432	0	32768	
1433	0	32608	
1434	0	32368	
1435	0	32582	
1436	0	32876	
1437	0	32764	
1438	0	32892	
1439	0	33045	
1440	0	32984	
1441	0	32852	
1442	0	32880	
1443	0	32970	
1444	0	32928	
1445	0	32784	
1446	0	32925	
1447	0	33012	
1448	0	32884	
1449	0	32624	
1450	0	32340	
1451	0	32420	
1452	0	32468	
1453	0	32360	
1454	0	32676	
1455	0	32765	
1456	0	32794	
1457	0	32824	
1458	0	33040	
1459	0	33120	
1460	0	33144	
1461	0	33024	
1462	0	32725	
1463	0	32432	
1464	0	32692	
1465	0	32984	
1466	0	32909	
1467	0	32904	
1468	0	32900	
1469	0	32630	
1470	0	32660	
1471	0	32780	
1472	0	32568	
1473	0	32404	
1474	0	32514	
1475	0	32776	
1476	0	32668	
1477	0	32944	
1478	0	32896	
1479	0	32812	
1480	0	32704	
1481	0	32844	
1482	0	32868	
1483	0	32952	
1484	0	33118	
1485	0	32980	
1486	0	32788	
1487	0	32844	
1488	0	32789	
1489	0	32768	
1490	0	32708	
1491	0	32572	
1492	0	32504	
1493	0	32584	
1494	0	32564	
1495	0	32596	
1496	0	32752	
1497	0	32804	
1498	0	32884	
1499	0	33064	
1500	0	33172	
1501	0	32760	
1502	0	32980	
1503	0	32940	
1504	0	32936	
1505	0	32836	
1506	0	32816	
1507	0	32832	
1508	0	32748	
1509	0	32676	
1510	0	32560	
1511	0	32500	
1512	0	32392	
1513	0	32508	
1514	0	32400	
1515	0	32552	
1516	0	32969	
1517	0	32952	
1518	0	32824	
1519	0	32800	
1520	0	32924	
1521	0	32952	
1522	0	32985	
1523	0	33016	
1524	0	32948	
1525	0	32952	
1526	0	32901	
1527	0	32988	
1528	0	32852	
1529	0	32848	
1530	0	32865	
1531	0	32862	
1532	0	32676	
1533	0	32329	
1534	0	31984	
1535	0	32444	
1536	0	32636	
1537	0	32686	
1538	0	32616	
1539	0	32604	
1540	0	33024	
1541	0	33252	
1542	0	33118	
1543	0	33080	
1544	0	33077	
1545	0	32996	
1546	0	32748	
1547	0	32724	
1548	0	32772	
1549	0	32652	
1550	0	32696	
1551	0	32769	
1552	0	32500	
1553	0	32196	
1554	0	32368	
1555	0	32573	
1556	0	32860	
1557	0	33212	
1558	0	32832	
1559	0	32704	
1560	0	32936	
1561	0	32848	
1562	0	33256	
1563	0	33340	
1564	0	33096	
1565	0	32784	
1566	0	32792	
1567	0	32680	
1568	0	32276	
1569	0	32472	
1570	0	32600	
1571	0	32629	
1572	0	32620	
1573	0	32652	
1574	0	32672	
1575	0	32840	
1576	0	32816	
1577	0	32684	
1578	0	32932	
1579	0	32928	
1580	0	32984	
1581	0	32812	
1582	0	32884	
1583	0	32788	
1584	0	32884	
1585	0	32964	
1586	0	32976	
1587	0	32725	
1588	0	32732	
1589	0	32709	
1590	0	32665	
1591	0	32704	
1592	0	32888	
1593	0	32588	
1594	0	32496	
1595	0	32584	
1596	0	32712	
1597	0	32420	
1598	0	32744	
1599	0	32976	
1600	0	32988	
1601	0	32948	
1602	0	33064	
1603	0	32940	
1604	0	32892	
1605	0	32836	
1606	0	32904	
1607	0	32896	
1608	0	32864	
1609	0	32776	
1610	0	32708	
1611	0	32684	
1612	0	32632	
1613	0	32380	
1614	0	32484	
1615	0	32660	
1616	0	32804	
1617	0	32700	
1618	0	32814	
1619	0	33028	
1620	0	33224	
1621	0	33060	
1622	0	33020	
1623	0	32616	
1624	0	32652	
1625	0	32852	
1626	0	32976	
1627	0	32880	
1628	0	32665	
1629	0	32520	
1630	0	32560	
1631	0	32626	
1632	0	32704	
1633	0	32620	
1634	0	32805	
1635	0	32826	
1636	0	32600	
1637	0	32572	
1638	0	32577	
1639	0	33020	
1640	0	33028	
1641	0	32724	
1642	0	33012	
1643	0	33056	
1644	0	32950	
1645	0	32876	
1646	0	32772	
1647	0	32718	
1648	0	32944	
1649	0	32869	
1650	0	33056	
1651	0	32904	
1652	0	32580	
1653	0	32184	
1654	0	32317	
1655	0	32292	
1656	0	32576	
1657	0	32716	
1658	0	32952	
1659	0	32876	
1660	0	32857	
1661	0	33072	
1662	0	32969	
1663	0	33056	
1664	0	32900	
1665	0	32824	
1666	0	33036	
1667	0	32964	
1668	0	32960	
1669	0	32912	
1670	0	32685	
1671	0	32388	
1672	0	32368	
1673	0	32292	
1674	0	32376	
1675	0	32612	
1676	0	32848	
1677	0	32992	
1678	0	32832	
1679	0	33028	
1680	0	33048	
1681	0	32996	
1682	0	33028	
1683	0	32932	
1684	0	32852	
1685	0	32796	
1686	0	32792	
1687	0	32808	
1688	0	32562	
1689	0	32592	
1690	0	32932	
1691	0	32696	
1692	0	32760	
1693	0	32600	
1694	0	32406	
1695	0	32552	
1696	0	32560	
1697	0	32552	
1698	0	32544	
1699	0	32932	
1700	0	33216	
1701	0	32936	
1702	0	32936	
1703	0	32932	
1704	0	32836	
1705	0	32900	
1706	0	32992	
1707	0	32964	
1708	0	32900	
1709	0	32652	
1710	0	32620	
1711	0	32593	
1712	0	32636	
1713	0	32864	
1714	0	32852	
1715	0	32716	
1716	0	32673	
1717	0	32424	
1718	0	32504	
1719	0	32820	
1720	0	32736	
1721	0	32920	
1722	0	33240	
1723	0	33104	
1724	0	32788	
1725	0	32736	
1726	0	32780	
1727	0	32780	
1728	0	32744	
1729	0	32824	
1730	0	32824	
1731	0	32688	
1732	0	32589	
1733	0	32580	
1734	0	32588	
1735	0	32600	
1736	0	32836	
1737	0	33044	
1738	0	32684	
1739	0	33036	
1740	0	32900	
1741	0	32677	
1742	0	32600	
1743	0	32988	
1744	0	33024	
1745	0	32736	
1746	0	32825	
1747	0	32860	
1748	0	32720	
1749	0	32804	
1750	0	32796	
1751	0	32688	
1752	0	32532	
1753	0	32468	
1754	0	32545	
1755	0	32716	
1756	0	33076	
1757	0	33057	
1758	0	33036	
1759	0	32768	
1760	0	32632	
1761	0	32664	
1762	0	32632	
1763	0	32696	
1764	0	32972	
1765	0	33076	
1766	0	33124	
1767	0	32820	
1768	0	32748	
1769	0	32743	
1770	0	32804	
1771	0	33114	
1772	0	32960	
1773	0	32372	
1774	0	31800	
1775	0	32188	
1776	0	32556	
1777	0	32768	
1778	0	32796	
1779	0	32985	
1780	0	33337	
1781	0	33216	
1782	0	32848	
1783	0	32856	
1784	0	32984	
1785	0	32972	
1786	0	32932	
1787	0	32932	
1788	0	32753	
1789	0	32734	
1790	0	32736	
1791	0	32700	
1792	0	32524	
1793	0	32428	
1794	0	32262	
1795	0	32309	
1796	0	32781	
1797	0	33040	
1798	0	32856	
1799	0	32988	
1800	0	32948	
1801	0	32996	
1802	0	33076	
1803	0	32680	
1804	0	32664	
1805	0	32956	
1806	0	32916	
1807	0	33024	
1808	0	33036	
1809	0	32896	
1810	0	32764	
1811	0	32260	
1812	0	32166	
1813	0	32336	
1814	0	32716	
1815	0	32760	
1816	0	32728	
1817	0	32745	
1818	0	32872	
1819	0	32996	
1820	0	33132	
1821	0	33084	
1822	0	32944	
1823	0	32940	
1824	0	32860	
1825	0	32828	
1826	0	32834	
1827	0	32740	
1828	0	32688	
1829	0	32836	
1830	0	32708	
1831	0	32624	
1832	0	32584	
1833	0	32460	
1834	0	32465	
1835	0	32696	
1836	0	32846	
1837	0	32788	
1838	0	32808	
1839	0	32801	
1840	0	32884	
1841	0	32916	
1842	0	32988	
1843	0	32768	
1844	0	32820	
1845	0	32969	
1846	0	32924	
1847	0	33037	
1848	0	32976	
1849	0	32848	
1850	0	32497	
1851	0	32364	
1852	0	32480	
1853	0	32533	
1854	0	32676	
1855	0	32756	
1856	0	32838	
1857	0	32904	
1858	0	32640	
1859	0	32636	
1860	0	32928	
1861	0	33104	
1862	0	33008	
1863	0	32980	
1864	0	32816	
1865	0	32836	
1866	0	32964	
1867	0	33002	
1868	0	32780	
1869	0	32792	
1870	0	32708	
1871	0	32448	
1872	0	32448	
1873	0	32620	
1874	0	32526	
1875	0	32665	
1876	0	32722	
1877	0	32688	
1878	0	32756	
1879	0	32908	
1880	0	32992	
1881	0	32972	
1882	0	32920	
1883	0	32845	
1884	0	33016	
1885	0	32964	
1886	0	32864	
1887	0	32968	
1888	0	32780	
1889	0	32612	
1890	0	32562	
1891	0	32660	
1892	0	32636	
1893	0	32608	
1894	0	32645	
1895	0	32684	
1896	0	32924	
1897	0	33072	
1898	0	33008	
1899	0	32888	
1900	0	32756	
1901	0	32695	
1902	0	32656	
1903	0	32860	
1904	0	32592	
1905	0	32592	
1906	0	32860	
1907	0	32920	
1908	0	32876	
1909	0	32900	
1910	0	32700	
1911	0	32472	
1912	0	32568	
1913	0	32640	
1914	0	32396	
1915	0	32560	
1916	0	32796	
1917	0	32892	
1918	0	33124	
1919	0	33156	
1920	0	32974	
1921	0	32924	
1922	0	32944	
1923	0	32900	
1924	0	32620	
1925	0	32616	
1926	0	32936	
1927	0	33098	
1928	0	32876	
1929	0	32788	
1930	0	32692	
1931	0	32484	
1932	0	32264	
1933	0	32444	
1934	0	32793	
1935	0	32732	
1936	0	32580	
1937	0	32700	
1938	0	32872	
1939	0	32964	
1940	0	33032	
1941	0	32808	
1942	0	32976	
1943	0	32884	
1944	0	32972	
1945	0	32984	
1946	0	33028	
1947	0	32996	
1948	0	32792	
1949	0	32479	
1950	0	32588	
1951	0	32684	
1952	0	32500	
1953	0	32620	
1954	0	32604	
1955	0	32736	
1956	0	32744	
1957	0	32784	
1958	0	32760	
1959	0	32972	
1960	0	32957	
1961	0	32582	
1962	0	32560	
1963	0	32832	
1964	0	32888	
1965	0	33152	
1966	0	33308	
1967	0	32796	
1968	0	32684	
1969	0	32920	
1970	0	32914	
1971	0	32797	
1972	0	32392	
1973	0	32352	
1974	0	32512	
1975	0	32500	
1976	0	32422	
1977	0	32780	
1978	0	32952	
1979	0	32988	
1980	0	32960	
1981	0	33028	
1982	0	33032	
1983	0	33060	
1984	0	32964	
1985	0	32932	
1986	0	32834	
1987	0	32820	
1988	0	32870	
1989	0	32768	
1990	0	32516	
1991	0	32568	
1992	0	32460	
1993	0	32676	
1994	0	32772	
1995	0	32753	
1996	0	32608	
1997	0	32528	
1998	0	32572	
1999	0	32760	
2000	0	32952	
2001	0	33134	
2002	0	33270	
2003	0	33152	
2004	0	32692	
2005	0	32640	
2006	0	32784	
2007	0	33084	
2008	0	32908	
2009	0	32576	
2010	0	32700	
2011	0	32764	
2012	0	32492	
2013	0	32452	
2014	0	32632	
2015	0	32677	
2016	0	32778	
2017	0	32825	
2018	0	32468	
2019	0	32553	
2020	0	32748	
2021	0	32956	
2022	0	33004	
2023	0	33008	
2024	0	32972	
2025	0	33068	
2026	0	33184	
2027	0	33028	
2028	0	32740	
2029	0	32544	
2030	0	32656	
2031	0	32589	
2032	0	32576	
2033	0	32588	
2034	0	32702	
2035	0	32568	
2036	0	32848	
2037	0	33316	
2038	0	32800	
2039	0	32582	
2040	0	32612	
2041	0	32492	
2042	0	32568	
2043	0	33000	
2044	0	33053	
2045	0	33092	
2046	0	32900	
2047	0	32968	
2048	0	32901	
2049	0	32804	
2050	0	32572	
2051	0	32456	
2052	0	32660	
2053	0	32824	
2054	0	32664	
2055	0	32549	
2056	0	32676	
2057	0	32516	
2058	0	32648	
2059	0	32920	
2060	0	32792	
2061	0	32869	
2062	0	32932	
2063	0	32972	
2064	0	33000	
2065	0	32916	
2066	0	32932	
2067	0	32908	
2068	0	33044	
2069	0	32736	
2070	0	32628	
2071	0	32772	
2072	0	32668	
2073	0	32439	
2074	0	32100	
2075	0	32228	
2076	0	32808	
2077	0	33008	
2078	0	32928	
2079	0	32960	
2080	0	32908	
2081	0	32832	
2082	0	32904	
2083	0	33164	
2084	0	33148	
2085	0	32982	
2086	0	33000	
2087	0	32722	
2088	0	32528	
2089	0	32556	
2090	0	32744	
2091	0	32544	
2092	0	32476	
2093	0	32364	
2094	0	32384	
2095	0	32648	
2096	0	32964	
2097	0	32736	
2098	0	32812	
2099	0	32952	
2100	0	33040	
2101	0	32884	
2102	0	32712	
2103	0	32996	
2104	0	33097	
2105	0	33056	
2106	0	32976	
2107	0	32996	
2108	0	32884	
2109	0	32680	
2110	0	32644	
2111	0	32676	
2112	0	32620	
2113	0	32740	
2114	0	32456	
2115	0	32556	
2116	0	32508	
2117	0	32864	
2118	0	33072	
2119	0	32728	
2120	0	32392	
2121	0	32604	
2122	0	32877	
2123	0	33152	
2124	0	33120	
2125	0	32812	
2126	0	32864	
2127	0	33028	
2128	0	33109	
2129	0	32856	
2130	0	32644	
2131	0	32644	
2132	0	32320	
2133	0	32248	
2134	0	32256	
2135	0	32452	
2136	0	32985	
2137	0	32988	
2138	0	32976	
2139	0	33056	
2140	0	32728	
2141	0	32616	
2142	0	33016	
2143	0	33108	
2144	0	32984	
2145	0	32908	
2146	0	32936	
2147	0	32940	
2148	0	32912	
2149	0	32796	
2150	0	32684	
2151	0	32604	
2152	0	32660	
2153	0	32428	
2154	0	32432	
2155	0	32548	
2156	0	32688	
2157	0	32870	
2158	0	32956	
2159	0	32952	
2160	0	32972	
2161	0	32920	
2162	0	32744	
2163	0	32862	
2164	0	32972	
2165	0	33168	
2166	0	33252	
2167	0	32792	
2168	0	32424	
2169	0	32288	
2170	0	32673	
2171	0	32712	
2172	0	32596	
2173	0	32592	
2174	0	32454	
2175	0	32448	
2176	0	32716	
2177	0	32997	
2178	0	33064	
2179	0	32972	
2180	0	33060	
2181	0	32848	
2182	0	32604	
2183	0	32820	
2184	0	32864	
2185	0	32912	
2186	0	33016	
2187	0	32912	
2188	0	32904	
2189	0	32720	
2190	0	32604	
2191	0	32624	
2192	0	32708	
2193	0	32508	
2194	0	32576	
2195	0	32612	
2196	0	32524	
2197	0	32576	
2198	0	32968	
2199	0	33208	
2200	0	32868	
2201	0	32820	
2202	0	33048	
2203	0	32936	
2204	0	32708	
2205	0	32412	
2206	0	32748	
2207	0	32882	
2208	0	32948	
2209	0	32804	
2210	0	32988	
2211	0	32900	
2212	0	32656	
2213	0	32280	
2214	0	32072	
2215	0	32424	
2216	0	32680	
2217	0	32824	
2218	0	33004	
2219	0	33064	
2220	0	33024	
2221	0	32980	
2222	0	33088	
2223	0	32956	
2224	0	32972	
2225	0	32928	
2226	0	32913	
2227	0	32884	
2228	0	32784	
2229	0	32548	
2230	0	32588	
2231	0	32584	
2232	0	32488	
2233	0	32608	
2234	0	32557	
2235	0	32556	
2236	0	32740	
2237	0	32772	
2238	0	32905	
2239	0	32968	
2240	0	32845	
2241	0	32788	
2242	0	32956	
2243	0	33080	
2244	0	33192	
2245	0	32982	
2246	0	32908	
2247	0	32964	
2248	0	32928	
2249	0	32588	
2250	0	32356	
2251	0	32436	
2252	0	32478	
2253	0	32504	
2254	0	32584	
2255	0	32705	
2256	0	32821	
2257	0	32924	
2258	0	32976	
2259	0	32948	
2260	0	32540	
2261	0	32624	
2262	0	32824	
2263	0	32844	
2264	0	33048	
2265	0	33120	
2266	0	33208	
2267	0	33364	
2268	0	32880	
2269	0	32328	
2270	0	32112	
2271	0	32166	
2272	0	32760	
2273	0	32644	
2274	0	32552	
2275	0	32704	
2276	0	32712	
2277	0	32740	
2278	0	32788	
2279	0	32920	
2280	0	33092	
2281	0	32941	
2282	0	33084	
2283	0	33188	
2284	0	33069	
2285	0	32804	
2286	0	32804	
2287	0	32868	
2288	0	32860	
2289	0	32724	
2290	0	32340	
2291	0	32516	
2292	0	32376	
2293	0	32328	
2294	0	32396	
2295	0	32564	
2296	0	33076	
2297	0	33388	
2298	0	33092	
2299	0	32876	
2300	0	32876	
2301	0	32856	
2302	0	32928	
2303	0	32788	
2304	0	32856	
2305	0	32996	
2306	0	33164	
2307	0	32924	
2308	0	32496	
2309	0	32484	
2310	0	32540	
2311	0	32608	
2312	0	32736	
2313	0	32632	
2314	0	32360	
2315	0	32384	
2316	0	32612	
2317	0	32928	
2318	0	32918	
2319	0	32921	
2320	0	32908	
2321	0	32968	
2322	0	32924	
2323	0	32850	
2324	0	32756	
2325	0	32928	
2326	0	33092	
2327	0	32932	
2328	0	32798	
2329	0	32772	
2330	0	32552	
2331	0	32576	
2332	0	32536	
2333	0	32496	
2334	0	32640	
2335	0	32640	
2336	0	32788	
2337	0	32848	
2338	0	32812	
2339	0	32836	
2340	0	32864	
2341	0	32856	
2342	0	33048	
2343	0	33040	
2344	0	32900	
2345	0	32914	
2346	0	32984	
2347	0	32964	
2348	0	33020	
2349	0	32880	
2350	0	33052	
2351	0	32776	
2352	0	32100	
2353	0	31936	
2354	0	32070	
2355	0	32348	
2356	0	32568	
2357	0	32788	
2358	0	33008	
2359	0	33252	
2360	0	33072	
2361	0	32836	
2362	0	32896	
2363	0	32964	
2364	0	32892	
2365	0	32888	
2366	0	33120	
2367	0	33120	
2368	0	32764	
2369	0	32684	
2370	0	32748	
2371	0	32716	
2372	0	32640	
2373	0	32648	
2374	0	32576	
2375	0	32285	
2376	0	32340	
2377	0	32600	
2378	0	32770	
2379	0	33068	
2380	0	33140	
2381	0	33176	
2382	0	33268	
2383	0	32928	
2384	0	32640	
2385	0	32680	
2386	0	32380	
2387	0	32557	
2388	0	32672	
2389	0	32716	
2390	0	32701	
2391	0	32760	
2392	0	32796	
2393	0	32776	
2394	0	32676	
2395	0	32640	
2396	0	32736	
2397	0	32848	
2398	0	32784	
2399	0	32884	
2400	0	32880	
2401	0	32940	
2402	0	32996	
2403	0	33220	
2404	0	32996	
2405	0	32890	
2406	0	33120	
2407	0	33228	
2408	0	32716	
2409	0	32272	
2410	0	32512	
2411	0	32684	
2412	0	32628	
2413	0	32420	
2414	0	32364	
2415	0	32568	
2416	0	32693	
2417	0	32640	
2418	0	32776	
2419	0	32704	
2420	0	32821	
2421	0	32896	
2422	0	33048	
2423	0	33020	
2424	0	32876	
2425	0	32886	
2426	0	33066	
2427	0	33152	
2428	0	33148	
2429	0	32876	
2430	0	32484	
2431	0	32460	
2432	0	32516	
2433	0	32552	
2434	0	32600	
2435	0	32956	
2436	0	32628	
2437	0	32374	
2438	0	32864	
2439	0	33228	
2440	0	32854	
2441	0	32452	
2442	0	32767	
2443	0	32966	
2444	0	32780	
2445	0	32880	
2446	0	32708	
2447	0	32736	
2448	0	32772	
2449	0	32768	
2450	0	32694	
2451	0	32765	
2452	0	32708	
2453	0	32724	
2454	0	32584	
2455	0	32628	
2456	0	32840	
2457	0	32860	
2458	0	32976	
2459	0	32828	
2460	0	32748	
2461	0	32989	
2462	0	33092	
2463	0	33124	
2464	0	32860	
2465	0	32504	
2466	0	32676	
2467	0	32916	
2468	0	32852	
2469	0	32800	
2470	0	32646	
2471	0	32812	
2472	0	32672	
2473	0	32524	
2474	0	32296	
2475	0	32400	
2476	0	32633	
2477	0	32844	
2478	0	32952	
2479	0	33124	
2480	0	33081	
2481	0	32996	
2482	0	32884	
2483	0	32972	
2484	0	32968	
2485	0	32840	
2486	0	33132	
2487	0	32880	
2488	0	32420	
2489	0	32368	
2490	0	32584	
2491	0	32756	
2492	0	32620	
2493	0	32496	
2494	0	32333	
2495	0	32460	
2496	0	32792	
2497	0	33028	
2498	0	32932	
2499	0	33092	
2500	0	32912	
2501	0	32838	
2502	0	32844	
2503	0	32856	
2504	0	32960	
2505	0	33132	
2506	0	33168	
2507	0	32828	
2508	0	32660	
2509	0	32404	
2510	0	32532	
2511	0	32652	
2512	0	32728	
2513	0	32808	
2514	0	32760	
2515	0	32700	
2516	0	32872	
2517	0	32556	
2518	0	32376	
2519	0	32740	
2520	0	32928	
2521	0	32680	
2522	0	32776	
2523	0	33048	
2524	0	33000	
2525	0	32924	
2526	0	32752	
2527	0	32732	
2528	0	32928	
2529	0	33068	
2530	0	32984	
2531	0	32836	
2532	0	32580	
2533	0	32532	
2534	0	32596	
2535	0	32472	
2536	0	32480	
2537	0	32844	
2538	0	32884	
2539	0	32916	
2540	0	32928	
2541	0	32960	
2542	0	32944	
2543	0	32860	
2544	0	32572	
2545	0	32640	
2546	0	33032	
2547	0	33148	
2548	0	33076	
2549	0	32877	
2550	0	32544	
2551	0	32352	
2552	0	32384	
2553	0	32420	
2554	0	32593	
2555	0	32644	
2556	0	32848	
2557	0	32861	
2558	0	32816	
2559	0	32996	
2560	0	33100	
2561	0	33036	
2562	0	32864	
2563	0	32664	
2564	0	32740	
2565	0	32852	
2566	0	32844	
2567	0	32916	
2568	0	32860	
2569	0	32896	
2570	0	32998	
2571	0	33068	
2572	0	33060	
2573	0	32360	
2574	0	32192	
2575	0	32396	
2576	0	32364	
2577	0	32276	
2578	0	32502	
2579	0	32780	
2580	0	32780	
2581	0	32869	
2582	0	33010	
2583	0	33284	
2584	0	33072	
2585	0	32908	
2586	0	32924	
2587	0	33008	
2588	0	33189	
2589	0	32825	
2590	0	32624	
2591	0	32638	
2592	0	32678	
2593	0	32493	
2594	0	32452	
2595	0	32525	
2596	0	32648	
2597	0	32824	
2598	0	32940	
2599	0	32932	
2600	0	32876	
2601	0	32848	
2602	0	32908	
2603	0	32956	
2604	0	32844	
2605	0	32997	
2606	0	33188	
2607	0	33088	
2608	0	32974	
2609	0	32653	
2610	0	32348	
2611	0	32140	
2612	0	32480	
2613	0	32452	
2614	0	32428	
2615	0	32512	
2616	0	32676	
2617	0	32848	
2618	0	33004	
2619	0	33024	
2620	0	32844	
2621	0	32856	
2622	0	32980	
2623	0	33020	
2624	0	32968	
2625	0	32960	
2626	0	32917	
2627	0	32992	
2628	0	32960	
2629	0	32824	
2630	0	32688	
2631	0	32512	
2632	0	32564	
2633	0	32740	
2634	0	32720	
2635	0	32424	
2636	0	31869	
2637	0	32252	
2638	0	32864	
2639	0	33316	
2640	0	33484	
2641	0	33040	
2642	0	32712	
2643	0	32504	
2644	0	32712	
2645	0	32628	
2646	0	32804	
2647	0	33092	
2648	0	33068	
2649	0	32684	
2650	0	32694	
2651	0	32736	
2652	0	32952	
2653	0	32689	
2654	0	32408	
2655	0	32576	
2656	0	32732	
2657	0	32884	
2658	0	32808	
2659	0	32946	
2660	0	33100	
2661	0	33044	
2662	0	32972	
2663	0	32832	
2664	0	32860	
2665	0	32776	
2666	0	32744	
2667	0	32854	
2668	0	32740	
2669	0	32732	
2670	0	32580	
2671	0	32672	
2672	0	32776	
2673	0	32504	
2674	0	32268	
2675	0	32452	
2676	0	32692	
2677	0	32829	
2678	0	32944	
2679	0	33016	
2680	0	32956	
2681	0	32832	
2682	0	32824	
2683	0	32890	
2684	0	32921	
2685	0	33020	
2686	0	33196	
2687	0	33388	
2688	0	33348	
2689	0	32928	
2690	0	32240	
2691	0	31812	
2692	0	32036	
2693	0	32688	
2694	0	32748	
2695	0	32452	
2696	0	32352	
2697	0	32756	
2698	0	32944	
2699	0	33184	
2700	0	33096	
2701	0	32992	
2702	0	32980	
2703	0	32832	
2704	0	32840	
2705	0	32814	
2706	0	33052	
2707	0	33076	
2708	0	32932	
2709	0	32792	
2710	0	32805	
2711	0	32556	
2712	0	32308	
2713	0	32460	
2714	0	32508	
2715	0	32472	
2716	0	32608	
2717	0	32916	
2718	0	32980	
2719	0	32868	
2720	0	33000	
2721	0	32932	
2722	0	32844	
2723	0	32948	
2724	0	32936	
2725	0	32928	
2726	0	33008	
2727	0	33004	
2728	0	32688	
2729	0	32400	
2730	0	32760	
2731	0	33068	
2732	0	32936	
2733	0	32436	
2734	0	32076	
2735	0	32188	
2736	0	32404	
2737	0	32630	
2738	0	32852	
2739	0	33143	
2740	0	33072	
2741	0	33280	
2742	0	33152	
2743	0	32868	
2744	0	32484	
2745	0	32848	
2746	0	32924	
2747	0	32884	
2748	0	32964	
2749	0	32788	
2750	0	32552	
2751	0	32500	
2752	0	32532	
2753	0	32756	
2754	0	32702	
2755	0	32536	
2756	0	32620	
2757	0	32732	
2758	0	32828	
2759	0	32740	
2760	0	32848	
2761	0	32940	
2762	0	32916	
2763	0	32894	
2764	0	32872	
2765	0	32829	
2766	0	32916	
2767	0	32960	
2768	0	32884	
2769	0	32868	
2770	0	32756	
2771	0	32704	
2772	0	32816	
2773	0	32589	
2774	0	32404	
2775	0	32568	
2776	0	32612	
2777	0	32928	
2778	0	32804	
2779	0	32980	
2780	0	32796	
2781	0	32572	
2782	0	32812	
2783	0	32928	
2784	0	32884	
2785	0	33056	
2786	0	33040	
2787	0	32868	
2788	0	32728	
2789	0	32548	
2790	0	32644	
2791	0	32668	
2792	0	32740	
2793	0	32624	
2794	0	32548	
2795	0	32556	
2796	0	32680	
2797	0	32892	
2798	0	32900	
2799	0	32812	
2800	0	32900	
2801	0	32940	
2802	0	32980	
2803	0	32868	
2804	0	32712	
2805	0	32869	
2806	0	33140	
2807	0	33432	
2808	0	33128	
2809	0	32412	
2810	0	32364	
2811	0	32160	
2812	0	32288	
2813	0	32600	
2814	0	32604	
2815	0	32484	
2816	0	32682	
2817	0	32904	
2818	0	32900	
2819	0	33036	
2820	0	32836	
2821	0	32730	
2822	0	32892	
2823	0	32884	
2824	0	32852	
2825	0	32833	
2826	0	32908	
2827	0	33112	
2828	0	32864	
2829	0	32760	
2830	0	32744	
2831	0	32813	
2832	0	32644	
2833	0	32446	
2834	0	32588	
2835	0	32620	
2836	0	32572	
2837	0	32669	
2838	0	32788	
2839	0	32992	
2840	0	33096	
2841	0	33176	
2842	0	33090	
2843	0	33269	
2844	0	33184	
2845	0	32604	
2846	0	32284	
2847	0	32160	
2848	0	32604	
2849	0	32788	
2850	0	32860	
2851	0	32780	
2852	0	32780	
2853	0	32604	
2854	0	32476	
2855	0	32516	
2856	0	32636	
2857	0	32764	
2858	0	32836	
2859	0	32972	
2860	0	32985	
2861	0	33360	
2862	0	33556	
2863	0	33278	
2864	0	32832	
2865	0	32302	
2866	0	32276	
2867	0	32462	
2868	0	32692	
2869	0	32680	
2870	0	32660	
2871	0	32732	
2872	0	32748	
2873	0	32820	
2874	0	32848	
2875	0	32648	
2876	0	32516	
2877	0	32447	
2878	0	32576	
2879	0	32872	
2880	0	33017	
2881	0	33064	
2882	0	33022	
2883	0	33014	
2884	0	33028	
2885	0	32948	
2886	0	32946	
2887	0	32884	
2888	0	32920	
2889	0	32796	
2890	0	32748	
2891	0	32665	
2892	0	32840	
2893	0	32620	
2894	0	32348	
2895	0	32440	
2896	0	32408	
2897	0	32504	
2898	0	32728	
2899	0	32896	
2900	0	33088	
2901	0	33028	
2902	0	32980	
2903	0	32940	
2904	0	32916	
2905	0	32788	
2906	0	32996	
2907	0	33116	
2908	0	32856	
2909	0	32652	
2910	0	32720	
2911	0	32706	
2912	0	32524	
2913	0	32492	
2914	0	32692	
2915	0	32697	
2916	0	32636	
2917	0	32408	
2918	0	32768	
2919	0	32944	
2920	0	32840	
2921	0	32792	
2922	0	32616	
2923	0	32692	
2924	0	32912	
2925	0	32968	
2926	0	33092	
2927	0	33024	
2928	0	33044	
2929	0	32912	
2930	0	32680	
2931	0	32768	
2932	0	32868	
2933	0	32832	
2934	0	32332	
2935	0	32377	
2936	0	32558	
2937	0	32844	
2938	0	32708	
2939	0	32620	
2940	0	32677	
2941	0	32852	
2942	0	33060	
2943	0	32944	
2944	0	32828	
2945	0	32892	
2946	0	32868	
2947	0	33020	
2948	0	32984	
2949	0	32872	
2950	0	32648	
2951	0	32552	
2952	0	32702	
2953	0	32800	
2954	0	32856	
2955	0	32524	
2956	0	32696	
2957	0	32792	
2958	0	32676	
2959	0	32832	
2960	0	32793	
2961	0	32492	
2962	0	32644	
2963	0	33000	
2964	0	33108	
2965	0	32852	
2966	0	32816	
2967	0	32924	
2968	0	32928	
2969	0	32822	
2970	0	32780	
2971	0	32628	
2972	0	32736	
2973	0	32704	
2974	0	32684	
2975	0	32469	
2976	0	32392	
2977	0	32732	
2978	0	32744	
2979	0	32804	
2980	0	33028	
2981	0	33076	
2982	0	32808	
2983	0	32868	
2984	0	32860	
2985	0	32864	
2986	0	32780	
2987	0	32892	
2988	0	32864	
2989	0	32904	
2990	0	32752	
2991	0	32612	
2992	0	32765	
2993	0	32448	
2994	0	32558	
2995	0	32668	
2996	0	32804	
2997	0	32844	
2998	0	32816	
2999	0	32940	
3000	0	32700	
3001	0	32448	
3002	0	32525	
3003	0	32800	
3004	0	32972	
3005	0	33124	
3006	0	33172	
3007	0	33104	
3008	0	33096	
3009	0	32984	
3010	0	32541	
3011	0	32308	
3012	0	32416	
3013	0	32376	
3014	0	32648	
3015	0	32584	
3016	0	32620	
3017	0	32821	
3018	0	33004	
3019	0	33108	
3020	0	33148	
3021	0	33024	
3022	0	33004	
3023	0	33246	
3024	0	32984	
3025	0	32237	
3026	0	32368	
3027	0	32572	
3028	0	32812	
3029	0	32892	
3030	0	32965	
3031	0	32615	
3032	0	32485	
3033	0	32404	
3034	0	32508	
3035	0	32672	
3036	0	32804	
3037	0	32744	
3038	0	32944	
3039	0	32948	
3040	0	32888	
3041	0	32920	
3042	0	33020	
3043	0	32828	
3044	0	32812	
3045	0	33044	
3046	0	33228	
3047	0	32948	
3048	0	32812	
3049	0	32637	
3050	0	32644	
3051	0	32582	
3052	0	32416	
3053	0	32268	
3054	0	32460	
3055	0	32969	
3056	0	32776	
3057	0	32788	
3058	0	32580	
3059	0	32645	
3060	0	32920	
3061	0	33020	
3062	0	33152	
3063	0	33256	
3064	0	33068	
3065	0	32736	
3066	0	32700	
3067	0	32680	
3068	0	32800	
3069	0	32868	
3070	0	32784	
3071	0	32502	
3072	0	32496	
3073	0	32473	
3074	0	32472	
3075	0	32744	
3076	0	32764	
3077	0	32820	
3078	0	33060	
3079	0	32924	
3080	0	32880	
3081	0	32736	
3082	0	32832	
3083	0	32832	
3084	0	33049	
3085	0	33076	
3086	0	33040	
3087	0	32892	
3088	0	32620	
3089	0	32564	
3090	0	32608	
3091	0	32648	
3092	0	32740	
3093	0	32456	
3094	0	32552	
3095	0	32552	
3096	0	32852	
3097	0	33084	
3098	0	32972	
3099	0	32872	
3100	0	32668	
3101	0	32704	
3102	0	32796	
3103	0	33004	
3104	0	32956	
3105	0	32910	
3106	0	32916	
3107	0	32996	
3108	0	32988	
3109	0	32804	
3110	0	32768	
3111	0	32652	
3112	0	32608	
3113	0	32312	
3114	0	32350	
3115	0	32660	
3116	0	32680	
3117	0	32548	
3118	0	32544	
3119	0	32676	
3120	0	32756	
3121	0	32888	
3122	0	33032	
3123	0	33102	
3124	0	33124	
3125	0	33004	
3126	0	32933	
3127	0	33032	
3128	0	33128	
3129	0	32630	
3130	0	32324	
3131	0	32532	
3132	0	32684	
3133	0	32349	
3134	0	32372	
3135	0	32376	
3136	0	32908	
3137	0	33220	
3138	0	32998	
3139	0	32895	
3140	0	32916	
3141	0	32860	
3142	0	32644	
3143	0	32732	
3144	0	32884	
3145	0	32996	
3146	0	32980	
3147	0	33024	
3148	0	33196	
3149	0	32764	
3150	0	32548	
3151	0	32480	
3152	0	32644	
3153	0	32584	
3154	0	32464	
3155	0	32612	
3156	0	32660	
3157	0	32684	
3158	0	32596	
3159	0	32844	
3160	0	32953	
3161	0	32988	
3162	0	32944	
3163	0	32792	
3164	0	32932	
3165	0	32929	
3166	0	32985	
3167	0	33077	
3168	0	33084	
3169	0	32876	
3170	0	32672	
3171	0	32570	
3172	0	32613	
3173	0	32606	
3174	0	32556	
3175	0	32524	
3176	0	32564	
3177	0	32632	
3178	0	32748	
3179	0	32888	
3180	0	32980	
3181	0	33132	
3182	0	32870	
3183	0	32608	
3184	0	32632	
3185	0	32996	
3186	0	33092	
3187	0	32896	
3188	0	32672	
3189	0	32558	
3190	0	32612	
3191	0	32588	
3192	0	32804	
3193	0	32901	
3194	0	32706	
3195	0	32560	
3196	0	32505	
3197	0	32716	
3198	0	33016	
3199	0	33284	
3200	0	33160	
3201	0	32952	
3202	0	32952	
3203	0	32896	
3204	0	32636	
3205	0	32512	
3206	0	32524	
3207	0	32588	
3208	0	32708	
3209	0	32476	
3210	0	32596	
3211	0	32870	
3212	0	32816	
3213	0	32748	
3214	0	32628	
3215	0	32484	
3216	0	32532	
3217	0	32796	
3218	0	32917	
3219	0	33152	
3220	0	33028	
3221	0	32832	
3222	0	32836	
3223	0	32984	
3224	0	32913	
3225	0	32724	
3226	0	33006	
3227	0	33124	
3228	0	33014	
3229	0	32680	
3230	0	32708	
3231	0	32516	
3232	0	32464	
3233	0	32496	
3234	0	32528	
3235	0	32585	
3236	0	32685	
3237	0	32749	
3238	0	32804	
3239	0	32824	
3240	0	32816	
3241	0	32924	
3242	0	33028	
3243	0	32926	
3244	0	32880	
3245	0	32852	
3246	0	32940	
3247	0	33028	
3248	0	33040	
3249	0	32744	
3250	0	32550	
3251	0	32596	
3252	0	32684	
3253	0	32544	
3254	0	32596	
3255	0	32572	
3256	0	32716	
3257	0	32916	
3258	0	32744	
3259	0	32652	
3260	0	32788	
3261	0	32993	
3262	0	33036	
3263	0	32688	
3264	0	32756	
3265	0	33144	
3266	0	33192	
3267	0	32928	
3268	0	32816	
3269	0	32736	
3270	0	32584	
3271	0	32728	
3272	0	32752	
3273	0	32391	
3274	0	32392	
3275	0	32600	
3276	0	32416	
3277	0	32480	
3278	0	32724	
3279	0	32925	
3280	0	33008	
3281	0	33124	
3282	0	33116	
3283	0	32960	
3284	0	33080	
3285	0	33176	
3286	0	32778	
3287	0	32622	
3288	0	32688	
3289	0	32632	
3290	0	32576	
3291	0	32628	
3292	0	32768	
3293	0	32864	
3294	0	32741	
3295	0	32549	
3296	0	32504	
3297	0	32740	
3298	0	32932	
3299	0	32944	
3300	0	32984	
3301	0	32784	
3302	0	32800	
3303	0	33028	
3304	0	33012	
3305	0	32836	
3306	0	32688	
3307	0	32792	
3308	0	33012	
3309	0	32952	
3310	0	32744	
3311	0	32540	
3312	0	32472	
3313	0	32529	
3314	0	32604	
3315	0	32644	
3316	0	32736	
3317	0	32868	
3318	0	32880	
3319	0	32804	
3320	0	32960	
3321	0	33012	
3322	0	32764	
3323	0	32752	
3324	0	32844	
3325	0	32960	
3326	0	32992	
3327	0	33040	
3328	0	32928	
3329	0	32824	
3330	0	32676	
3331	0	32732	
3332	0	32784	
3333	0	32440	
3334	0	32268	
3335	0	32468	
3336	0	32620	
3337	0	32552	
3338	0	32624	
3339	0	32768	
3340	0	33028	
3341	0	32972	
3342	0	32900	
3343	0	32888	
3344	0	32916	
3345	0	33120	
3346	0	33012	
3347	0	32964	
3348	0	32880	
3349	0	32720	
3350	0	32696	
3351	0	32628	
3352	0	32734	
3353	0	32604	
3354	0	32460	
3355	0	32189	
3356	0	32668	
3357	0	32956	
3358	0	32892	
3359	0	32984	
3360	0	32868	
3361	0	32681	
3362	0	32676	
3363	0	32888	
3364	0	32996	
3365	0	32956	
3366	0	33264	
3367	0	33092	
3368	0	32724	
3369	0	32357	
3370	0	32508	
3371	0	32850	
3372	0	32836	
3373	0	32696	
3374	0	32456	
3375	0	32465	
3376	0	32640	
3377	0	32856	
3378	0	33053	
3379	0	32908	
3380	0	32788	
3381	0	32796	
3382	0	32808	
3383	0	32844	
3384	0	33029	
3385	0	32840	
3386	0	32768	
3387	0	32964	
3388	0	32936	
3389	0	32820	
3390	0	32636	
3391	0	32741	
3392	0	32968	
3393	0	32808	
3394	0	32596	
3395	0	32316	
3396	0	32280	
3397	0	32556	
3398	0	32776	
3399	0	32904	
3400	0	32620	
3401	0	32750	
3402	0	32960	
3403	0	33072	
3404	0	32848	
3405	0	32864	
3406	0	32928	
3407	0	33132	
3408	0	33184	
3409	0	32956	
3410	0	32716	
3411	0	32448	
3412	0	32484	
3413	0	32568	
3414	0	32412	
3415	0	32468	
3416	0	32624	
3417	0	32637	
3418	0	32796	
3419	0	32996	
3420	0	33112	
3421	0	33260	
3422	0	33005	
3423	0	32660	
3424	0	32700	
3425	0	32684	
3426	0	33052	
3427	0	33156	
3428	0	32884	
3429	0	32800	
3430	0	32646	
3431	0	32456	
3432	0	32444	
3433	0	32488	
3434	0	32460	
3435	0	32508	
3436	0	32940	
3437	0	32749	
3438	0	32816	
3439	0	32832	
3440	0	32752	
3441	0	32800	
3442	0	33016	
3443	0	33080	
3444	0	33044	
3445	0	32700	
3446	0	32756	
3447	0	33080	
3448	0	32964	
3449	0	32728	
3450	0	32653	
3451	0	32540	
3452	0	32684	
3453	0	32450	
3454	0	32364	
3455	0	32708	
3456	0	32920	
3457	0	32796	
3458	0	33012	
3459	0	32988	
3460	0	32804	
3461	0	32784	
3462	0	32904	
3463	0	32792	
3464	0	32564	
3465	0	32660	
3466	0	32804	
3467	0	33032	
3468	0	33000	
3469	0	32880	
3470	0	32768	
3471	0	32629	
3472	0	32380	
3473	0	32432	
3474	0	32500	
3475	0	32732	
3476	0	32884	
3477	0	33028	
3478	0	32888	
3479	0	32778	
3480	0	32997	
3481	0	33016	
3482	0	33036	
3483	0	32892	
3484	0	32693	
3485	0	32694	
3486	0	32664	
3487	0	32900	
3488	0	32925	
3489	0	32652	
3490	0	32556	
3491	0	32528	
3492	0	32752	
3493	0	32676	
3494	0	32616	
3495	0	32536	
3496	0	32670	
3497	0	32868	
3498	0	33096	
3499	0	33228	
3500	0	33036	
3501	0	32837	
3502	0	32500	
3503	0	32685	
3504	0	32663	
3505	0	32884	
3506	0	32657	
3507	0	32476	
3508	0	32648	
3509	0	33112	
3510	0	33080	
3511	0	32773	
3512	0	32616	
3513	0	32525	
3514	0	32512	
3515	0	32628	
3516	0	32720	
3517	0	32772	
3518	0	32856	
3519	0	32868	
3520	0	32836	
3521	0	32968	
3522	0	33120	
3523	0	32942	
3524	0	32929	
3525	0	32880	
3526	0	32780	
3527	0	32764	
3528	0	32824	
3529	0	32672	
3530	0	32606	
3531	0	32720	
3532	0	32740	
3533	0	32736	
3534	0	32768	
3535	0	32516	
3536	0	32646	
3537	0	33092	
3538	0	33240	
3539	0	32752	
3540	0	32484	
3541	0	32640	
3542	0	32729	
3543	0	32798	
3544	0	32556	
3545	0	32698	
3546	0	32960	
3547	0	32985	
3548	0	32964	
3549	0	32816	
3550	0	32744	
3551	0	32764	
3552	0	32744	
3553	0	32660	
3554	0	32568	
3555	0	32568	
3556	0	32720	
3557	0	32928	
3558	0	32944	
3559	0	33004	
3560	0	32980	
3561	0	32758	
3562	0	32588	
3563	0	32728	
3564	0	32900	
3565	0	32740	
3566	0	32848	
3567	0	33232	
3568	0	33040	
3569	0	32596	
3570	0	32356	
3571	0	32364	
3572	0	32620	
3573	0	32640	
3574	0	32584	
3575	0	32770	
3576	0	32828	
3577	0	32840	
3578	0	32888	
3579	0	32880	
3580	0	32664	
3581	0	32660	
3582	0	32944	
3583	0	32984	
3584	0	33040	
3585	0	32992	
3586	0	32865	
3587	0	32976	
3588	0	33012	
3589	0	32752	
3590	0	32716	
3591	0	32592	
3592	0	32533	
3593	0	32649	
3594	0	32612	
3595	0	32400	
3596	0	32492	
3597	0	32740	
3598	0	32820	
3599	0	32888	
3600	0	33069	
3601	0	33316	
3602	0	33088	
3603	0	32604	
3604	0	32570	
3605	0	32870	
3606	0	32848	
3607	0	33029	
3608	0	32884	
3609	0	32764	
3610	0	32608	
3611	0	32536	
3612	0	32510	
3613	0	32596	
3614	0	32884	
3615	0	32940	
3616	0	32420	
3617	0	32224	
3618	0	32512	
3619	0	32992	
3620	0	33172	
3621	0	32965	
3622	0	32964	
3623	0	32948	
3624	0	32708	
3625	0	32706	
3626	0	32820	
3627	0	33140	
3628	0	33376	
3629	0	33188	
3630	0	32436	
3631	0	32296	
3632	0	32433	
3633	0	32368	
3634	0	32344	
3635	0	32476	
3636	0	32700	
3637	0	32816	
3638	0	32804	
3639	0	32840	
3640	0	33088	
3641	0	33112	
3642	0	32672	
3643	0	32584	
3644	0	32872	
3645	0	32992	
3646	0	33144	
3647	0	33141	
3648	0	33072	
3649	0	32776	
3650	0	32644	
3651	0	32556	
3652	0	32604	
3653	0	32720	
3654	0	32736	
3655	0	32408	
3656	0	32352	
3657	0	32584	
3658	0	32732	
3659	0	32780	
3660	0	32940	
3661	0	33044	
3662	0	32980	
3663	0	32800	
3664	0	32804	
3665	0	32956	
3666	0	33096	
3667	0	33176	
3668	0	33022	
3669	0	32932	
3670	0	32740	
3671	0	32624	
3672	0	32480	
3673	0	32500	
3674	0	32526	
3675	0	32444	
3676	0	32356	
3677	0	32480	
3678	0	32620	
3679	0	32972	
3680	0	33224	
3681	0	32910	
3682	0	32868	
3683	0	32652	
3684	0	32762	
3685	0	32924	
3686	0	33028	
3687	0	33122	
3688	0	33020	
3689	0	33016	
3690	0	32761	
3691	0	32418	
3692	0	32592	
3693	0	32692	
3694	0	32736	
3695	0	32606	
3696	0	32816	
3697	0	32724	
3698	0	32228	
3699	0	32460	
3700	0	32804	
3701	0	32904	
3702	0	32996	
3703	0	33100	
3704	0	32924	
3705	0	33076	
3706	0	33152	
3707	0	32996	
3708	0	32800	
3709	0	32704	
3710	0	32748	
3711	0	32640	
3712	0	32653	
3713	0	32640	
3714	0	32528	
3715	0	32564	
3716	0	32636	
3717	0	32620	
3718	0	32685	
3719	0	32748	
3720	0	32888	
3721	0	33076	
3722	0	33172	
3723	0	33182	
3724	0	32908	
3725	0	32652	
3726	0	32836	
3727	0	32960	
3728	0	33093	
3729	0	32992	
3730	0	32632	
3731	0	32400	
3732	0	32480	
3733	0	32400	
3734	0	32284	
3735	0	32356	
3736	0	32526	
3737	0	32752	
3738	0	32920	
3739	0	32852	
3740	0	32944	
3741	0	32936	
3742	0	33064	
3743	0	33196	
3744	0	33030	
3745	0	32724	
3746	0	32644	
3747	0	32788	
3748	0	33308	
3749	0	33084	
3750	0	32692	
3751	0	32592	
3752	0	32724	
3753	0	32408	
3754	0	32356	
3755	0	32528	
3756	0	32668	
3757	0	32621	
3758	0	32764	
3759	0	32942	
3760	0	33060	
3761	0	32688	
3762	0	32816	
3763	0	33056	
3764	0	33092	
3765	0	32952	
3766	0	32620	
3767	0	32828	
3768	0	33128	
3769	0	32864	
3770	0	32444	
3771	0	32444	
3772	0	32664	
3773	0	32544	
3774	0	32568	
3775	0	32588	
3776	0	32856	
3777	0	32828	
3778	0	33020	
3779	0	32744	
3780	0	32700	
3781	0	32736	
3782	0	32748	
3783	0	32956	
3784	0	32932	
3785	0	32792	
3786	0	32748	
3787	0	33196	
3788	0	33208	
3789	0	32948	
3790	0	32912	
3791	0	32676	
3792	0	32608	
3793	0	32582	
3794	0	32488	
3795	0	32416	
3796	0	32341	
3797	0	32432	
3798	0	32452	
3799	0	32484	
3800	0	32844	
3801	0	33220	
3802	0	32856	
3803	0	32944	
3804	0	33132	
3805	0	33204	
3806	0	32960	
3807	0	33004	
3808	0	32960	
3809	0	32828	
3810	0	32717	
3811	0	32636	
3812	0	32392	
3813	0	32636	
3814	0	32608	
3815	0	32540	
3816	0	32596	
3817	0	32776	
3818	0	32637	
3819	0	32616	
3820	0	32956	
3821	0	33080	
3822	0	33028	
3823	0	32932	
3824	0	32968	
3825	0	33076	
3826	0	32976	
3827	0	32884	
3828	0	32900	
3829	0	32804	
3830	0	32392	
3831	0	32601	
3832	0	32680	
3833	0	32556	
3834	0	32552	
3835	0	32536	
3836	0	32648	
3837	0	32764	
3838	0	32760	
3839	0	32741	
3840	0	32976	
3841	0	33100	
3842	0	33168	
3843	0	32856	
3844	0	32852	
3845	0	32888	
3846	0	32733	
3847	0	32732	
3848	0	32708	
3849	0	32808	
3850	0	32704	
3851	0	32696	
3852	0	32712	
3853	0	32600	
3854	0	32577	
3855	0	32608	
3856	0	32644	
3857	0	32820	
3858	0	32900	
3859	0	32932	
3860	0	33016	
3861	0	32848	
3862	0	32944	
3863	0	33028	
3864	0	32972	
3865	0	32700	
3866	0	32652	
3867	0	32936	
3868	0	32900	
3869	0	32676	
3870	0	32708	
3871	0	32792	
3872	0	32436	
3873	0	32460	
3874	0	32644	
3875	0	32636	
3876	0	32656	
3877	0	32654	
3878	0	32844	
3879	0	32940	
3880	0	32840	
3881	0	32621	
3882	0	32696	
3883	0	33156	
3884	0	33236	
3885	0	32932	
3886	0	32876	
3887	0	32832	
3888	0	32828	
3889	0	32804	
3890	0	32872	
3891	0	32796	
3892	0	32583	
3893	0	32593	
3894	0	32548	
3895	0	32500	
3896	0	32652	
3897	0	32628	
3898	0	32776	
3899	0	32808	
3900	0	32956	
3901	0	32968	
3902	0	33028	
3903	0	33269	
3904	0	33124	
3905	0	32716	
3906	0	32632	
3907	0	32772	
3908	0	32684	
3909	0	32740	
3910	0	32796	
3911	0	32732	
3912	0	32632	
3913	0	32652	
3914	0	32640	
3915	0	32752	
3916	0	32621	
3917	0	32485	
3918	0	32560	
3919	0	32612	
3920	0	32848	
3921	0	33000	
3922	0	33040	
3923	0	33065	
3924	0	32920	
3925	0	32754	
3926	0	32796	
3927	0	32760	
3928	0	32756	
3929	0	32840	
3930	0	32840	
3931	0	32908	
3932	0	32892	
3933	0	32504	
3934	0	32356	
3935	0	32328	
3936	0	32436	
3937	0	32704	
3938	0	32928	
3939	0	33042	
3940	0	32832	
3941	0	32924	
3942	0	32892	
3943	0	33060	
3944	0	32992	
3945	0	32864	
3946	0	32892	
3947	0	32920	
3948	0	32972	
3949	0	33128	
3950	0	32964	
3951	0	32576	
3952	0	32152	
3953	0	32080	
3954	0	32284	
3955	0	32616	
3956	0	32797	
3957	0	32736	
3958	0	32720	
3959	0	32756	
3960	0	32828	
3961	0	33116	
3962	0	32876	
3963	0	32808	
3964	0	33024	
3965	0	33088	
3966	0	32936	
3967	0	32888	
3968	0	32784	
3969	0	32812	
3970	0	32788	
3971	0	32644	
3972	0	32576	
3973	0	32604	
3974	0	32596	
3975	0	32621	
3976	0	32676	
3977	0	32748	
3978	0	32786	
3979	0	32804	
3980	0	32977	
3981	0	33108	
3982	0	33005	
3983	0	32864	
3984	0	32900	
3985	0	32716	
3986	0	32646	
3987	0	32796	
3988	0	32932	
3989	0	32912	
3990	0	32741	
3991	0	32820	
3992	0	32790	
3993	0	32616	
3994	0	32380	
3995	0	32364	
3996	0	32568	
3997	0	32772	
3998	0	32916	
3999	0	32909	
4000	0	32744	
4001	0	32872	
4002	0	33008	
4003	0	32844	
4004	0	32768	
4005	0	32688	
4006	0	32736	
4007	0	32804	
4008	0	33008	
4009	0	32964	
4010	0	32892	
4011	0	33022	
4012	0	32788	
4013	0	32360	
4014	0	32588	
4015	0	32604	
4016	0	32724	
4017	0	33256	
4018	0	33504	
4019	0	32473	
4020	0	32064	
4021	0	32208	
4022	0	32556	
4023	0	32828	
4024	0	33229	
4025	0	33144	
4026	0	32871	
4027	0	32836	
4028	0	33048	
4029	0	32988	
4030	0	32712	
4031	0	32596	
4032	0	32720	
4033	0	32704	
4034	0	32544	
4035	0	32584	
4036	0	32696	
4037	0	32740	
4038	0	32788	
4039	0	32909	
4040	0	32970	
4041	0	33156	
4042	0	32988	
4043	0	32752	
4044	0	32244	
4045	0	32492	
4046	0	32917	
4047	0	32832	
4048	0	32832	
4049	0	32944	
4050	0	32852	
4051	0	33032	
4052	0	32869	
4053	0	32596	
4054	0	32260	
4055	0	32308	
4056	0	32496	
4057	0	32848	
4058	0	33008	
4059	0	32924	
4060	0	32804	
4061	0	32852	
4062	0	32940	
4063	0	32940	
4064	0	33008	
4065	0	32956	
4066	0	32932	
4067	0	32932	
4068	0	32984	
4069	0	32892	
4070	0	32776	
4071	0	32756	
4072	0	32700	
4073	0	32660	
4074	0	32584	
4075	0	32685	
4076	0	32528	
4077	0	32228	
4078	0	32384	
4079	0	32796	
4080	0	32960	
4081	0	33036	
4082	0	33044	
4083	0	32716	
4084	0	32672	
4085	0	32796	
4086	0	32876	
4087	0	33000	
4088	0	32968	
4089	0	32824	
4090	0	32789	
4091	0	32684	
4092	0	32736	
4093	0	32672	
4094	0	32492	
4095	0	32556	
4096	0	32632	
4097	0	32574	
4098	0	32672	
4099	0	32901	
4100	0	33029	
4101	0	32930	
4102	0	32964	
4103	0	32974	
4104	0	32846	
4105	0	33300	
4106	0	33304	
4107	0	32828	
4108	0	32584	
4109	0	32716	
4110	0	32640	
4111	0	32532	
4112	0	32821	
4113	0	32478	
4114	0	32288	
4115	0	32368	
4116	0	32548	
4117	0	32574	
4118	0	32820	
4119	0	33096	
4120	0	32928	
4121	0	32828	
4122	0	32800	
4123	0	32732	
4124	0	32966	
4125	0	33180	
4126	0	33304	
4127	0	33316	
4128	0	33040	
4129	0	32708	
4130	0	32236	
4131	0	32284	
4132	0	32676	
4133	0	32633	
4134	0	32517	
4135	0	32420	
4136	0	32520	
4137	0	32786	
4138	0	32992	
4139	0	32912	
4140	0	32792	
4141	0	32952	
4142	0	33064	
4143	0	32932	
4144	0	32860	
4145	0	32816	
4146	0	32684	
4147	0	32704	
4148	0	32944	
4149	0	32808	
4150	0	32676	
4151	0	32736	
4152	0	32670	
4153	0	32708	
4154	0	32621	
4155	0	32620	
4156	0	32548	
4157	0	32552	
4158	0	32768	
4159	0	33048	
4160	0	33132	
4161	0	32736	
4162	0	32600	
4163	0	32808	
4164	0	32940	
4165	0	32868	
4166	0	32840	
4167	0	32804	
4168	0	33032	
4169	0	32968	
4170	0	32868	
4171	0	32780	
4172	0	32767	
4173	0	32752	
4174	0	32448	
4175	0	32380	
4176	0	32440	
4177	0	32684	
4178	0	32896	
4179	0	32840	
4180	0	32825	
4181	0	33112	
4182	0	33192	
4183	0	32852	
4184	0	32684	
4185	0	32576	
4186	0	32892	
4187	0	32869	
4188	0	32716	
4189	0	32788	
4190	0	32704	
4191	0	32580	
4192	0	32600	
4193	0	32924	
4194	0	32896	
4195	0	32564	
4196	0	32544	
4197	0	32804	
4198	0	32644	
4199	0	32792	
4200	0	32808	
4201	0	32669	
4202	0	32620	
4203	0	32900	
4204	0	33064	
4205	0	32996	
4206	0	32996	
4207	0	33164	
4208	0	33142	
4209	0	32992	
4210	0	32865	
4211	0	32680	
4212	0	32428	
4213	0	32268	
4214	0	32349	
4215	0	32420	
4216	0	32593	
4217	0	32880	
4218	0	32996	
4219	0	32720	
4220	0	32680	
4221	0	32812	
4222	0	32772	
4223	0	33032	
4224	0	33104	
4225	0	32972	
4226	0	32864	
4227	0	32768	
4228	0	32796	
4229	0	32844	
4230	0	32812	
4231	0	32788	
4232	0	32570	
4233	0	32664	
4234	0	32576	
4235	0	32544	
4236	0	32620	
4237	0	32656	
4238	0	32792	
4239	0	32892	
4240	0	32886	
4241	0	32956	
4242	0	33108	
4243	0	33104	
4244	0	32944	
4245	0	32976	
4246	0	33096	
4247	0	32572	
4248	0	32600	
4249	0	32868	
4250	0	32669	
4251	0	32476	
4252	0	32425	
4253	0	32359	
4254	0	32317	
4255	0	32716	
4256	0	32924	
4257	0	32888	
4258	0	32960	
4259	0	32932	
4260	0	32961	
4261	0	32840	
4262	0	32896	
4263	0	32932	
4264	0	32968	
4265	0	32692	
4266	0	32493	
4267	0	32760	
4268	0	32960	
4269	0	33030	
4270	0	32796	
4271	0	32768	
4272	0	32736	
4273	0	32624	
4274	0	32468	
4275	0	32536	
4276	0	32596	
4277	0	32606	
4278	0	32768	
4279	0	33008	
4280	0	33028	
4281	0	33012	
4282	0	33148	
4283	0	32832	
4284	0	32552	
4285	0	32600	
4286	0	32908	
4287	0	33060	
4288	0	33092	
4289	0	32844	
4290	0	32589	
4291	0	32596	
4292	0	32557	
4293	0	32540	
4294	0	32548	
4295	0	32712	
4296	0	32708	
4297	0	32774	
4298	0	32948	
4299	0	32840	
4300	0	32685	
4301	0	32680	
4302	0	32808	
4303	0	32800	
4304	0	32876	
4305	0	32984	
4306	0	33048	
4307	0	32992	
4308	0	32984	
4309	0	32878	
4310	0	32728	
4311	0	32512	
4312	0	32512	
4313	0	32540	
4314	0	32629	
4315	0	32485	
4316	0	32588	
4317	0	32628	
4318	0	32748	
4319	0	32784	
4320	0	32920	
4321	0	32981	
4322	0	33012	
4323	0	32916	
4324	0	32916	
4325	0	33020	
4326	0	32940	
4327	0	33072	
4328	0	33036	
4329	0	32764	
4330	0	32524	
4331	0	32528	
4332	0	32748	
4333	0	32640	
4334	0	32600	
4335	0	32433	
4336	0	32172	
4337	0	32552	
4338	0	32856	
4339	0	33000	
4340	0	32868	
4341	0	32888	
4342	0	32988	
4343	0	33172	
4344	0	32940	
4345	0	32540	
4346	0	32460	
4347	0	32696	
4348	0	32796	
4349	0	33204	
4350	0	32876	
4351	0	33000	
4352	0	32872	
4353	0	32688	
4354	0	32396	
4355	0	32260	
4356	0	32604	
4357	0	32680	
4358	0	32548	
4359	0	32872	
4360	0	32948	
4361	0	32944	
4362	0	33036	
4363	0	32928	
4364	0	33032	
4365	0	32880	
4366	0	32772	
4367	0	32780	
4368	0	32944	
4369	0	32920	
4370	0	32852	
4371	0	32760	
4372	0	32600	
4373	0	32468	
4374	0	32548	
4375	0	32537	
4376	0	32388	
4377	0	32588	
4378	0	32792	
4379	0	32880	
4380	0	32872	
4381	0	33088	
4382	0	33008	
4383	0	32856	
4384	0	32928	
4385	0	32964	
4386	0	32928	
4387	0	33120	
4388	0	33112	
4389	0	32796	
4390	0	32596	
4391	0	32232	
4392	0	32304	
4393	0	32572	
4394	0	32536	
4395	0	32559	
4396	0	32620	
4397	0	32704	
4398	0	32816	
4399	0	32996	
4400	0	33144	
4401	0	32876	
4402	0	32816	
4403	0	32910	
4404	0	32940	
4405	0	32988	
4406	0	32892	
4407	0	33032	
4408	0	32933	
4409	0	32810	
4410	0	32725	
4411	0	32452	
4412	0	32464	
4413	0	32644	
4414	0	32512	
4415	0	32444	
4416	0	32612	
4417	0	32661	
4418	0	32972	
4419	0	33028	
4420	0	33032	
4421	0	33084	
4422	0	32848	
4423	0	32744	
4424	0	32848	
4425	0	32622	
4426	0	32661	
4427	0	32794	
4428	0	32936	
4429	0	32892	
4430	0	32776	
4431	0	32689	
4432	0	32800	
4433	0	32832	
4434	0	32492	
4435	0	32412	
4436	0	32596	
4437	0	32924	
4438	0	32812	
4439	0	32704	
4440	0	33185	
4441	0	33112	
4442	0	32824	
4443	0	32404	
4444	0	32596	
4445	0	32792	
4446	0	32793	
4447	0	33120	
4448	0	33096	
4449	0	33136	
4450	0	32956	
4451	0	32706	
4452	0	32559	
4453	0	32496	
4454	0	32428	
4455	0	32424	
4456	0	32484	
4457	0	32760	
4458	0	32780	
4459	0	32928	
4460	0	32896	
4461	0	32832	
4462	0	32976	
4463	0	32892	
4464	0	32672	
4465	0	32856	
4466	0	32988	
4467	0	33128	
4468	0	33232	
4469	0	33220	
4470	0	32784	
4471	0	32368	
4472	0	32390	
4473	0	32412	
4474	0	32540	
4475	0	32500	
4476	0	32424	
4477	0	32656	
4478	0	32860	
4479	0	32776	
4480	0	33080	
4481	0	32916	
4482	0	32564	
4483	0	32728	
4484	0	32876	
4485	0	32928	
4486	0	33024	
4487	0	32950	
4488	0	33010	
4489	0	32968	
4490	0	32704	
4491	0	32564	
4492	0	32808	
4493	0	32886	
4494	0	32772	
4495	0	32496	
4496	0	32153	
4497	0	32524	
4498	0	32748	
4499	0	32864	
4500	0	32968	
4501	0	33166	
4502	0	33124	
4503	0	32776	
4504	0	32832	
4505	0	32816	
4506	0	32868	
4507	0	32909	
4508	0	32952	
4509	0	32980	
4510	0	32788	
4511	0	32586	
4512	0	32560	
4513	0	32584	
4514	0	32492	
4515	0	32576	
4516	0	32532	
4517	0	32662	
4518	0	32668	
4519	0	32728	
4520	0	32984	
4521	0	32976	
4522	0	32984	
4523	0	32980	
4524	0	32932	
4525	0	32924	
4526	0	32872	
4527	0	32968	
4528	0	33080	
4529	0	32940	
4530	0	32736	
4531	0	32668	
4532	0	32860	
4533	0	32620	
4534	0	32328	
4535	0	32217	
4536	0	32192	
4537	0	32476	
4538	0	32890	
4539	0	32924	
4540	0	32996	
4541	0	32982	
4542	0	32876	
4543	0	33057	
4544	0	33020	
4545	0	32925	
4546	0	32896	
4547	0	32980	
4548	0	32776	
4549	0	32768	
4550	0	32888	
4551	0	32924	
4552	0	32592	
4553	0	32336	
4554	0	32472	
4555	0	32496	
4556	0	32452	
4557	0	32349	
4558	0	32580	
4559	0	32952	
4560	0	33004	
4561	0	32924	
4562	0	32976	
4563	0	32972	
4564	0	33032	
4565	0	32992	
4566	0	32880	
4567	0	32877	
4568	0	32938	
4569	0	32972	
4570	0	33096	
4571	0	32628	
4572	0	32365	
4573	0	32416	
4574	0	32612	
4575	0	32636	
4576	0	32609	
4577	0	32744	
4578	0	32706	
4579	0	32660	
4580	0	32736	
4581	0	32836	
4582	0	32877	
4583	0	32996	
4584	0	32872	
4585	0	32984	
4586	0	32956	
4587	0	33088	
4588	0	32968	
4589	0	32798	
4590	0	32760	
4591	0	32648	
4592	0	32688	
4593	0	32868	
4594	0	32780	
4595	0	32722	
4596	0	32450	
4597	0	32500	
4598	0	32621	
4599	0	32644	
4600	0	32522	
4601	0	32804	
4602	0	32952	
4603	0	32872	
4604	0	33060	
4605	0	33116	
4606	0	33325	
4607	0	32956	
4608	0	32704	
4609	0	32480	
4610	0	32472	
4611	0	32633	
4612	0	32912	
4613	0	33004	
4614	0	32842	
4615	0	32568	
4616	0	32293	
4617	0	32496	
4618	0	32952	
4619	0	32908	
4620	0	32868	
4621	0	32757	
4622	0	32780	
4623	0	33000	
4624	0	32926	
4625	0	32672	
4626	0	32888	
4627	0	33020	
4628	0	32928	
4629	0	32776	
4630	0	32817	
4631	0	32620	
4632	0	32616	
4633	0	32664	
4634	0	32576	
4635	0	32688	
4636	0	32724	
4637	0	32696	
4638	0	32725	
4639	0	32776	
4640	0	32928	
4641	0	32908	
4642	0	32704	
4643	0	32776	
4644	0	32960	
4645	0	33188	
4646	0	33124	
4647	0	32896	
4648	0	32884	
4649	0	32676	
4650	0	32648	
4651	0	32861	
4652	0	32496	
4653	0	32328	
4654	0	32568	
4655	0	32492	
4656	0	32544	
4657	0	32584	
4658	0	32820	
4659	0	33108	
4660	0	33280	
4661	0	33272	
4662	0	32788	
4663	0	32604	
4664	0	32736	
4665	0	32868	
4666	0	32844	
4667	0	32824	
4668	0	32876	
4669	0	32808	
4670	0	32820	
4671	0	32668	
4672	0	32684	
4673	0	32760	
4674	0	32597	
4675	0	32625	
4676	0	32612	
4677	0	32640	
4678	0	32772	
4679	0	32756	
4680	0	32868	
4681	0	32892	
4682	0	33100	
4683	0	33088	
4684	0	32909	
4685	0	32828	
4686	0	32752	
4687	0	32716	
4688	0	32784	
4689	0	32828	
4690	0	32708	
4691	0	32700	
4692	0	32588	
4693	0	32512	
4694	0	32640	
4695	0	32756	
4696	0	32664	
4697	0	32448	
4698	0	32648	
4699	0	32784	
4700	0	33008	
4701	0	33312	
4702	0	33176	
4703	0	32916	
4704	0	32708	
4705	0	32732	
4706	0	32936	
4707	0	33048	
4708	0	32657	
4709	0	32704	
4710	0	32780	
4711	0	32604	
4712	0	32534	
4713	0	32597	
4714	0	32552	
4715	0	32596	
4716	0	32561	
4717	0	32648	
4718	0	32736	
4719	0	32772	
4720	0	32920	
4721	0	32902	
4722	0	32900	
4723	0	32928	
4724	0	33032	
4725	0	33140	
4726	0	33002	
4727	0	32876	
4728	0	32948	
4729	0	33068	
4730	0	32904	
4731	0	32740	
4732	0	32665	
4733	0	32752	
4734	0	32432	
4735	0	32360	
4736	0	32182	
4737	0	32288	
4738	0	32640	
4739	0	32716	
4740	0	32784	
4741	0	33077	
4742	0	32997	
4743	0	32920	
4744	0	32980	
4745	0	33004	
4746	0	33140	
4747	0	33166	
4748	0	32998	
4749	0	32888	
4750	0	32672	
4751	0	32552	
4752	0	32508	
4753	0	32600	
4754	0	32472	
4755	0	32492	
4756	0	32560	
4757	0	32588	
4758	0	32740	
4759	0	32864	
4760	0	33080	
4761	0	32972	
4762	0	32901	
4763	0	32952	
4764	0	32908	
4765	0	32996	
4766	0	32981	
4767	0	32784	
4768	0	32812	
4769	0	33152	
4770	0	33044	
4771	0	32612	
4772	0	32260	
4773	0	32590	
4774	0	32716	
4775	0	32336	
4776	0	32360	
4777	0	32516	
4778	0	32852	
4779	0	32888	
4780	0	32896	
4781	0	32888	
4782	0	32836	
4783	0	32884	
4784	0	32978	
4785	0	33172	
4786	0	33084	
4787	0	32888	
4788	0	32692	
4789	0	32412	
4790	0	32652	
4791	0	32820	
4792	0	32804	
4793	0	32820	
4794	0	32548	
4795	0	32324	
4796	0	32252	
4797	0	32532	
4798	0	32736	
4799	0	32908	
4800	0	32877	
4801	0	32928	
4802	0	32846	
4803	0	32957	
4804	0	32968	
4805	0	33040	
4806	0	33164	
4807	0	32972	
4808	0	32772	
4809	0	32772	
4810	0	32756	
4811	0	32868	
4812	0	32840	
4813	0	32644	
4814	0	32416	
4815	0	32485	
4816	0	32540	
4817	0	32588	
4818	0	32576	
4819	0	32622	
4820	0	32816	
4821	0	32837	
4822	0	32860	
4823	0	33076	
4824	0	33045	
4825	0	32992	
4826	0	32968	
4827	0	33036	
4828	0	33140	
4829	0	32912	
4830	0	32590	
4831	0	32561	
4832	0	32640	
4833	0	32508	
4834	0	32546	
4835	0	32516	
4836	0	32518	
4837	0	32484	
4838	0	32740	
4839	0	33192	
4840	0	33132	
4841	0	32576	
4842	0	32532	
4843	0	32792	
4844	0	33024	
4845	0	32828	
4846	0	32909	
4847	0	33040	
4848	0	32952	
4849	0	32856	
4850	0	32684	
4851	0	32664	
4852	0	32824	
4853	0	32880	
4854	0	32598	
4855	0	32464	
4856	0	32632	
4857	0	32688	
4858	0	32748	
4859	0	33040	
4860	0	32948	
4861	0	32876	
4862	0	32764	
4863	0	32660	
4864	0	32408	
4865	0	32432	
4866	0	32733	
4867	0	33116	
4868	0	33168	
4869	0	32960	
4870	0	32936	
4871	0	32936	
4872	0	32737	
4873	0	32444	
4874	0	32336	
4875	0	32540	
4876	0	32784	
4877	0	32912	
4878	0	32784	
4879	0	32612	
4880	0	32456	
4881	0	32560	
4882	0	32844	
4883	0	33000	
4884	0	33228	
4885	0	33064	
4886	0	33052	
4887	0	32905	
4888	0	32924	
4889	0	32876	
4890	0	32752	
4891	0	32696	
4892	0	32670	
4893	0	32740	
4894	0	32604	
4895	0	32484	
4896	0	32532	
4897	0	32613	
4898	0	32661	
4899	0	32778	
4900	0	32824	
4901	0	32864	
4902	0	32892	
4903	0	32980	
4904	0	32976	
4905	0	32856	
4906	0	32868	
4907	0	32884	
4908	0	32904	
4909	0	32848	
4910	0	32944	
4911	0	32708	
4912	0	32608	
4913	0	32792	
4914	0	32812	
4915	0	32624	
4916	0	32384	
4917	0	32388	
4918	0	32617	
4919	0	32708	
4920	0	32860	
4921	0	32996	
4922	0	32784	
4923	0	33132	
4924	0	33129	
4925	0	32668	
4926	0	32844	
4927	0	32924	
4928	0	32888	
4929	0	32824	
4930	0	32440	
4931	0	32728	
4932	0	33096	
4933	0	32952	
4934	0	32128	
4935	0	32134	
4936	0	32292	
4937	0	32772	
4938	0	32945	
4939	0	32545	
4940	0	32576	
4941	0	33012	
4942	0	33348	
4943	0	33653	
4944	0	33420	
4945	0	32620	
4946	0	32244	
4947	0	32564	
4948	0	32900	
4949	0	33036	
4950	0	32822	
4951	0	32560	
4952	0	32658	
4953	0	32678	
4954	0	32624	
4955	0	32604	
4956	0	32604	
4957	0	32676	
4958	0	32724	
4959	0	32920	
4960	0	32866	
4961	0	32840	
4962	0	32865	
4963	0	32908	
4964	0	33012	
4965	0	32984	
4966	0	32972	
4967	0	32800	
4968	0	32976	
4969	0	32904	
4970	0	32801	
4971	0	32684	
4972	0	32628	
4973	0	32648	
4974	0	32620	
4975	0	32544	
4976	0	32476	
4977	0	32548	
4978	0	32672	
4979	0	32778	
4980	0	32892	
4981	0	32984	
4982	0	32864	
4983	0	32869	
4984	0	32932	
4985	0	32869	
4986	0	32972	
4987	0	32968	
4988	0	33132	
4989	0	33144	
4990	0	32876	
4991	0	32560	
4992	0	32360	
4993	0	32340	
4994	0	32284	
4995	0	32412	
4996	0	32520	
4997	0	32624	
4998	0	32696	
4999	0	32800	
5000	0	32860	
5001	0	32892	
5002	0	33020	
5003	0	33052	
5004	0	33164	
5005	0	33328	
5006	0	33160	
5007	0	32784	
5008	0	33244	
5009	0	33196	
5010	0	32440	
5011	0	32048	
5012	0	32276	
5013	0	32384	
5014	0	32468	
5015	0	32716	
5016	0	32752	
5017	0	32840	
5018	0	32676	
5019	0	32668	
5020	0	32832	
5021	0	33284	
5022	0	32964	
5023	0	32704	
5024	0	32456	
5025	0	32589	
5026	0	32756	
5027	0	32860	
5028	0	32812	
5029	0	33008	
5030	0	33024	
5031	0	32896	
5032	0	33028	
5033	0	32836	
5034	0	32508	
5035	0	32230	
5036	0	32384	
5037	0	32624	
5038	0	32757	
5039	0	32924	
5040	0	32832	
5041	0	32820	
5042	0	32876	
5043	0	32940	
5044	0	32916	
5045	0	32928	
5046	0	32916	
5047	0	32920	
5048	0	32984	
5049	0	32980	
5050	0	32861	
5051	0	32732	
5052	0	32580	
5053	0	32630	
5054	0	32568	
5055	0	32540	
5056	0	32505	
5057	0	32452	
5058	0	32648	
5059	0	32728	
5060	0	32890	
5061	0	32957	
5062	0	32988	
5063	0	32972	
5064	0	32888	
5065	0	32997	
5066	0	32932	
5067	0	32760	
5068	0	32796	
5069	0	32940	
5070	0	32896	
5071	0	32740	
5072	0	32732	
5073	0	32604	
5074	0	32476	
5075	0	32380	
5076	0	32484	
5077	0	32644	
5078	0	32756	
5079	0	32976	
5080	0	32932	
5081	0	32856	
5082	0	32940	
5083	0	32868	
5084	0	32924	
5085	0	32864	
5086	0	32720	
5087	0	32816	
5088	0	33404	
5089	0	33488	
5090	0	32568	
5091	0	32466	
5092	0	32692	
5093	0	32820	
5094	0	32460	
5095	0	32172	
5096	0	32184	
5097	0	32588	
5098	0	32804	
5099	0	32956	
5100	0	32744	
5101	0	33228	
5102	0	33276	
5103	0	32746	
5104	0	32724	
5105	0	32368	
5106	0	32577	
5107	0	33164	
5108	0	33076	
5109	0	32997	
5110	0	32888	
5111	0	32872	
5112	0	32536	
5113	0	32568	
5114	0	32436	
5115	0	32508	
5116	0	32448	
5117	0	32613	
5118	0	32776	
5119	0	32900	
5120	0	33044	
5121	0	33024	
5122	0	32876	
5123	0	32804	
5124	0	32832	
5125	0	32990	
5126	0	33152	
5127	0	32980	
5128	0	32764	
5129	0	32908	
5130	0	32860	
5131	0	32704	
5132	0	32697	
5133	0	32600	
5134	0	32492	
5135	0	32396	
5136	0	32352	
5137	0	32464	
5138	0	32684	
5139	0	32880	
5140	0	32975	
5141	0	33012	
5142	0	32948	
5143	0	32932	
5144	0	32912	
5145	0	32940	
5146	0	32980	
5147	0	32892	
5148	0	32936	
5149	0	32988	
5150	0	32844	
5151	0	32616	
5152	0	32529	
5153	0	32510	
5154	0	32384	
5155	0	32656	
5156	0	32644	
5157	0	32616	
5158	0	32609	
5159	0	32768	
5160	0	32820	
5161	0	32832	
5162	0	32948	
5163	0	33048	
5164	0	33016	
5165	0	33072	
5166	0	32920	
5167	0	32816	
5168	0	33084	
5169	0	33294	
5170	0	32580	
5171	0	32244	
5172	0	32441	
5173	0	32532	
5174	0	32592	
5175	0	32600	
5176	0	32708	
5177	0	32716	
5178	0	32740	
5179	0	32824	
5180	0	32936	
5181	0	32870	
5182	0	32812	
5183	0	32720	
5184	0	32573	
5185	0	32632	
5186	0	32714	
5187	0	32944	
5188	0	33012	
5189	0	33300	
5190	0	32784	
5191	0	32508	
5192	0	32444	
5193	0	32596	
5194	0	32556	
5195	0	32596	
5196	0	32892	
5197	0	33140	
5198	0	32420	
5199	0	31220	
5200	0	31216	
5201	0	31884	
5202	0	32428	
5203	0	33184	
5204	0	33056	
5205	0	33540	
5206	0	34312	
5207	0	34501	
5208	0	34580	
5209	0	34312	
5210	0	33700	
5211	0	33374	
5212	0	32968	
5213	0	32284	
5214	0	31476	
5215	0	31460	
5216	0	32152	
5217	0	32100	
5218	0	31722	
5219	0	31588	
5220	0	32016	
5221	0	32328	
5222	0	32692	
5223	0	33396	
5224	0	33192	
5225	0	32036	
5226	0	31284	
5227	0	31060	
5228	0	29476	
5229	0	29233	
5230	0	30369	
5231	0	32590	
5232	0	34460	
5233	0	35644	
5234	0	36512	
5235	0	36472	
5236	0	36220	
5237	0	36412	
5238	0	36359	
5239	0	36373	
5240	0	34956	
5241	0	32580	
5242	0	30520	
5243	0	30452	
5244	0	31652	
5245	0	32532	
5246	0	32985	
5247	0	31704	
5248	0	27988	
5249	0	28352	
5250	0	29492	
5251	0	31816	
5252	0	33180	
5253	0	34240	
5254	0	34980	
5255	0	35720	
5256	0	36320	
5257	0	36252	
5258	0	35520	
5259	0	35164	
5260	0	34040	
5261	0	32988	
5262	0	31692	
5263	0	30772	
5264	0	30588	
5265	0	29764	
5266	0	30256	
5267	0	31716	
5268	0	32916	
5269	0	34473	
5270	0	35172	
5271	0	36196	
5272	0	35551	
5273	0	33640	
5274	0	33432	
5275	0	33400	
5276	0	33656	
5277	0	33148	
5278	0	32200	
5279	0	31920	
5280	0	31176	
5281	0	30068	
5282	0	29232	
5283	0	24832	
5284	0	23240	
5285	0	25528	
5286	0	27797	
5287	0	30489	
5288	0	33760	
5289	0	36588	
5290	0	38260	
5291	0	38364	
5292	0	38272	
5293	0	36944	
5294	0	36420	
5295	0	36772	
5296	0	35966	
5297	0	33976	
5298	0	33744	
5299	0	33550	
5300	0	33776	
5301	0	32544	
5302	0	29300	
5303	0	26352	
5304	0	26328	
5305	0	28704	
5306	0	31008	
5307	0	33396	
5308	0	35368	
5309	0	35672	
5310	0	34760	
5311	0	33100	
5312	0	31316	
5313	0	28760	
5314	0	28260	
5315	0	29456	
5316	0	30040	
5317	0	30981	
5318	0	34032	
5319	0	32564	
5320	0	25900	
5321	0	26580	
5322	0	31472	
5323	0	35744	
5324	0	38348	
5325	0	40832	
5326	0	43096	
5327	0	42924	
5328	0	40976	
5329	0	39528	
5330	0	37188	
5331	0	35052	
5332	0	31796	
5333	0	30433	
5334	0	29944	
5335	0	28449	
5336	0	24140	
5337	0	20144	
5338	0	16545	
5339	0	20948	
5340	0	29566	
5341	0	36612	
5342	0	41328	
5343	0	43992	
5344	0	45264	
5345	0	45540	
5346	0	45184	
5347	0	42376	
5348	0	38412	
5349	0	35324	
5350	0	30977	
5351	0	27408	
5352	0	25268	
5353	0	24548	
5354	0	25956	
5355	0	28684	
5356	0	30976	
5357	0	32672	
5358	0	33212	
5359	0	33100	
5360	0	33798	
5361	0	34568	
5362	0	34432	
5363	0	32728	
5364	0	30544	
5365	0	29648	
5366	0	29492	
5367	0	30606	
5368	0	31316	
5369	0	30549	
5370	0	30844	
5371	0	30296	
5372	0	31084	
5373	0	32108	
5374	0	33045	
5375	0	30140	
5376	0	25952	
5377	0	27216	
5378	0	32132	
5379	0	36196	
5380	0	37485	
5381	0	38892	
5382	0	40036	
5383	0	39480	
5384	0	38177	
5385	0	35864	
5386	0	33784	
5387	0	32296	
5388	0	31336	
5389	0	31184	
5390	0	30144	
5391	0	29144	
5392	0	28368	
5393	0	27224	
5394	0	28116	
5395	0	29796	
5396	0	30512	
5397	0	31444	
5398	0	32919	
5399	0	33168	
5400	0	33016	
5401	0	34024	
5402	0	34904	
5403	0	34612	
5404	0	33344	
5405	0	33224	
5406	0	33496	
5407	0	35072	
5408	0	34544	
5409	0	33892	
5410	0	32636	
5411	0	33252	
5412	0	34184	
5413	0	34752	
5414	0	36085	
5415	0	36544	
5416	0	35860	
5417	0	34008	
5418	0	33144	
5419	0	33097	
5420	0	33412	
5421	0	33848	
5422	0	33884	
5423	0	33460	
5424	0	32632	
5425	0	31777	
5426	0	31942	
5427	0	32448	
5428	0	32768	
5429	0	31616	
5430	0	30292	
5431	0	30296	
5432	0	30820	
5433	0	31464	
5434	0	31576	
5435	0	31784	
5436	0	31956	
5437	0	31800	
5438	0	31908	
5439	0	32034	
5440	0	32024	
5441	0	31932	
5442	0	32160	
5443	0	32356	
5444	0	32612	
5445	0	32256	
5446	0	32344	
5447	0	32775	
5448	0	33030	
5449	0	33324	
5450	0	33224	
5451	0	33560	
5452	0	33436	
5453	0	33428	
5454	0	33052	
5455	0	32764	
5456	0	32908	
5457	0	32869	
5458	0	33232	
5459	0	33566	
5460	0	32924	
5461	0	32620	
5462	0	32029	
5463	0	32084	
5464	0	32752	
5465	0	33132	
5466	0	33200	
5467	0	33232	
5468	0	33288	
5469	0	33192	
5470	0	32989	
5471	0	32688	
5472	0	32520	
5473	0	32629	
5474	0	32493	
5475	0	32148	
5476	0	31988	
5477	0	32096	
5478	0	32272	
5479	0	31672	
5480	0	31758	
5481	0	32620	
5482	0	33208	
5483	0	33996	
5484	0	34552	
5485	0	34480	
5486	0	34148	
5487	0	33872	
5488	0	33664	
5489	0	33780	
5490	0	33496	
5491	0	33076	
5492	0	32752	
5493	0	32645	
5494	0	32200	
5495	0	31912	
5496	0	31780	
5497	0	31626	
5498	0	31648	
5499	0	31944	
5500	0	32536	
5501	0	32948	
5502	0	32752	
5503	0	32652	
5504	0	32780	
5505	0	32944	
5506	0	33028	
5507	0	33008	
5508	0	33236	
5509	0	33124	
5510	0	32992	
5511	0	33068	
5512	0	32852	
5513	0	32320	
5514	0	32352	
5515	0	32497	
5516	0	32568	
5517	0	32492	
5518	0	32540	
5519	0	32580	
5520	0	32744	
5521	0	32956	
5522	0	32844	
5523	0	32576	
5524	0	32764	
5525	0	33260	
5526	0	33048	
5527	0	32936	
5528	0	32936	
5529	0	33092	
5530	0	32792	
5531	0	32636	
5532	0	32850	
5533	0	32716	
5534	0	32937	
5535	0	32992	
5536	0	32486	
5537	0	32624	
5538	0	32064	
5539	0	32384	
5540	0	32640	
5541	0	32632	
5542	0	32668	
5543	0	32844	
5544	0	32981	
5545	0	32880	
5546	0	32824	
5547	0	32894	
5548	0	33052	
5549	0	32980	
5550	0	32884	
5551	0	32805	
5552	0	32740	
5553	0	32816	
5554	0	32876	
5555	0	33188	
5556	0	32720	
5557	0	32636	
5558	0	32709	
5559	0	32760	
5560	0	32972	
5561	0	32712	
5562	0	32452	
5563	0	32636	
5564	0	32528	
5565	0	32612	
5566	0	33016	
5567	0	33028	
5568	0	32960	
5569	0	32596	
5570	0	32408	
5571	0	32416	
5572	0	32712	
5573	0	32764	
5574	0	32813	
5575	0	32781	
5576	0	33124	
5577	0	33320	
5578	0	33284	
5579	0	33120	
5580	0	32704	
5581	0	32612	
5582	0	32640	
5583	0	32468	
5584	0	32425	
5585	0	32740	
5586	0	32880	
5587	0	32976	
5588	0	32812	
5589	0	32676	
5590	0	32768	
5591	0	32872	
5592	0	32762	
5593	0	32764	
5594	0	32486	
5595	0	32396	
5596	0	32252	
5597	0	32152	
5598	0	32525	
5599	0	32968	
5600	0	33084	
5601	0	33072	
5602	0	33368	
5603	0	33540	
5604	0	33384	
5605	0	33388	
5606	0	33076	
5607	0	32352	
5608	0	31812	
5609	0	32184	
5610	0	32724	
5611	0	32944	
5612	0	32948	
5613	0	32652	
5614	0	32416	
5615	0	32432	
5616	0	32420	
5617	0	32613	
5618	0	32652	
5619	0	33116	
5620	0	33048	
5621	0	33196	
5622	0	34804	
5623	0	34348	
5624	0	32812	
5625	0	31596	
5626	0	31964	
5627	0	32217	
5628	0	32800	
5629	0	33084	
5630	0	32736	
5631	0	32568	
5632	0	32704	
5633	0	32456	
5634	0	32265	
5635	0	31648	
5636	0	31712	
5637	0	31792	
5638	0	31860	
5639	0	31716	
5640	0	31952	
5641	0	32121	
5642	0	31612	
5643	0	30320	
5644	0	29588	
5645	0	30080	
5646	0	31928	
5647	0	33924	
5648	0	35824	
5649	0	36928	
5650	0	37136	
5651	0	36700	
5652	0	36532	
5653	0	36004	
5654	0	35620	
5655	0	33900	
5656	0	32668	
5657	0	32300	
5658	0	32428	
5659	0	32368	
5660	0	32868	
5661	0	33164	
5662	0	30280	
5663	0	27004	
5664	0	25386	
5665	0	27752	
5666	0	30212	
5667	0	32260	
5668	0	32068	
5669	0	31500	
5670	0	32980	
5671	0	34736	
5672	0	34912	
5673	0	34849	
5674	0	36036	
5675	0	36728	
5676	0	36068	
5677	0	35701	
5678	0	36420	
5679	0	36772	
5680	0	36108	
5681	0	36416	
5682	0	35462	
5683	0	34024	
5684	0	31916	
5685	0	31076	
5686	0	30120	
5687	0	27456	
5688	0	27700	
5689	0	28580	
5690	0	30036	
5691	0	31532	
5692	0	32741	
5693	0	33028	
5694	0	33212	
5695	0	33068	
5696	0	30956	
5697	0	29176	
5698	0	29844	
5699	0	30980	
5700	0	31132	
5701	0	31888	
5702	0	31952	
5703	0	33292	
5704	0	34984	
5705	0	36712	
5706	0	36665	
5707	0	37456	
5708	0	38804	
5709	0	38893	
5710	0	38028	
5711	0	36080	
5712	0	32584	
5713	0	29754	
5714	0	28940	
5715	0	29261	
5716	0	27928	
5717	0	26000	
5718	0	21680	
5719	0	22264	
5720	0	26376	
5721	0	30992	
5722	0	32780	
5723	0	31656	
5724	0	31252	
5725	0	33000	
5726	0	32022	
5727	0	30812	
5728	0	34672	
5729	0	41080	
5730	0	44776	
5731	0	44718	
5732	0	44064	
5733	0	41760	
5734	0	38324	
5735	0	37208	
5736	0	35840	
5737	0	29616	
5738	0	30740	
5739	0	28727	
5740	0	25556	
5741	0	30132	
5742	0	30928	
5743	0	23440	
5744	0	18968	
5745	0	24653	
5746	0	32348	
5747	0	37936	
5748	0	42620	
5749	0	44988	
5750	0	44760	
5751	0	44148	
5752	0	38128	
5753	0	34444	
5754	0	32060	
5755	0	31897	
5756	0	30892	
5757	0	28616	
5758	0	27296	
5759	0	22817	
5760	0	23156	
5761	0	25112	
5762	0	26304	
5763	0	27942	
5764	0	30608	
5765	0	33220	
5766	0	35012	
5767	0	35404	
5768	0	35768	
5769	0	35560	
5770	0	34988	
5771	0	33900	
5772	0	33269	
5773	0	32576	
5774	0	30254	
5775	0	29376	
5776	0	27564	
5777	0	28580	
5778	0	28100	
5779	0	30516	
5780	0	31264	
5781	0	35676	
5782	0	39844	
5783	0	40636	
5784	0	38240	
5785	0	34260	
5786	0	33824	
5787	0	30800	
5788	0	31160	
5789	0	32336	
5790	0	34940	
5791	0	34644	
5792	0	28922	
5793	0	32016	
5794	0	37876	
5795	0	40712	
5796	0	42316	
5797	0	41896	
5798	0	39533	
5799	0	35852	
5800	0	31796	
5801	0	29468	
5802	0	28664	
5803	0	26572	
5804	0	25780	
5805	0	24936	
5806	0	22452	
5807	0	23456	
5808	0	26148	
5809	0	29964	
5810	0	32364	
5811	0	33948	
5812	0	34168	
5813	0	35488	
5814	0	35016	
5815	0	35124	
5816	0	35476	
5817	0	36816	
5818	0	36492	
5819	0	32228	
5820	0	30620	
5821	0	33476	
5822	0	35428	
5823	0	37632	
5824	0	38416	
5825	0	35876	
5826	0	32932	
5827	0	32528	
5828	0	31332	
5829	0	30800	
5830	0	31484	
5831	0	31544	
5832	0	29372	
5833	0	30604	
5834	0	32240	
5835	0	33073	
5836	0	33728	
5837	0	33088	
5838	0	32252	
5839	0	33500	
5840	0	33716	
5841	0	33596	
5842	0	34092	
5843	0	33208	
5844	0	31140	
5845	0	29392	
5846	0	29273	
5847	0	31672	
5848	0	33272	
5849	0	34248	
5850	0	34900	
5851	0	34596	
5852	0	34272	
5853	0	33516	
5854	0	32893	
5855	0	32677	
5856	0	32272	
5857	0	30528	
5858	0	30561	
5859	0	31136	
5860	0	31366	
5861	0	31700	
5862	0	32624	
5863	0	33316	
5864	0	33984	
5865	0	33228	
5866	0	29760	
5867	0	26953	
5868	0	28277	
5869	0	30912	
5870	0	32704	
5871	0	34328	
5872	0	35688	
5873	0	36004	
5874	0	35597	
5875	0	35520	
5876	0	35040	
5877	0	34660	
5878	0	35144	
5879	0	35048	
5880	0	34596	
5881	0	33636	
5882	0	31444	
5883	0	30724	
5884	0	29993	
5885	0	29765	
5886	0	31496	
5887	0	32148	
5888	0	33056	
5889	0	34728	
5890	0	36284	
5891	0	37096	
5892	0	37152	
5893	0	37412	
5894	0	36720	
5895	0	34308	
5896	0	31864	
5897	0	30928	
5898	0	30352	
5899	0	30476	
5900	0	30664	
5901	0	31136	
5902	0	31656	
5903	0	31764	
5904	0	31397	
5905	0	31023	
5906	0	30744	
5907	0	29609	
5908	0	30461	
5909	0	31300	
5910	0	31512	
5911	0	32790	
5912	0	33592	
5913	0	33460	
5914	0	33780	
5915	0	33584	
5916	0	33400	
5917	0	33356	
5918	0	33372	
5919	0	33824	
5920	0	33120	
5921	0	32708	
5922	0	33028	
5923	0	32944	
5924	0	32764	
5925	0	32444	
5926	0	31993	
5927	0	32236	
5928	0	32696	
5929	0	33044	
5930	0	33076	
5931	0	33016	
5932	0	32989	
5933	0	33012	
5934	0	32773	
5935	0	32800	
5936	0	32772	
5937	0	32796	
5938	0	33073	
5939	0	32776	
5940	0	32304	
5941	0	32280	
5942	0	32756	
5943	0	33064	
5944	0	33120	
5945	0	32894	
5946	0	32852	
5947	0	32800	
5948	0	32948	
5949	0	32964	
5950	0	32788	
5951	0	32548	
5952	0	32388	
5953	0	32108	
5954	0	32264	
5955	0	32394	
5956	0	32724	
5957	0	32996	
5958	0	33052	
5959	0	33140	
5960	0	33168	
5961	0	33088	
5962	0	33120	
5963	0	33161	
5964	0	33060	
5965	0	33076	
5966	0	32916	
5967	0	32428	
5968	0	32476	
5969	0	32826	
5970	0	33372	
5971	0	33304	
5972	0	33056	
5973	0	32920	
5974	0	31952	
5975	0	31508	
5976	0	31416	
5977	0	31384	
5978	0	31504	
5979	0	32100	
5980	0	32948	
5981	0	33340	
5982	0	33406	
5983	0	33224	
5984	0	32825	
5985	0	33344	
5986	0	33876	
5987	0	34368	
5988	0	34540	
5989	0	34446	
5990	0	34096	
5991	0	33776	
5992	0	33286	
5993	0	33028	
5994	0	32545	
5995	0	32276	
5996	0	32104	
5997	0	32064	
5998	0	32076	
5999	0	32085	
6000	0	32188	
6001	0	32308	
6002	0	32192	
6003	0	32320	
6004	0	32588	
6005	0	32613	
6006	0	32565	
6007	0	32360	
6008	0	32381	
6009	0	32476	
6010	0	32664	
6011	0	32616	
6012	0	32636	
6013	0	32604	
6014	0	32524	
6015	0	32484	
6016	0	32734	
6017	0	33148	
6018	0	33332	
6019	0	33528	
6020	0	33560	
6021	0	33644	
6022	0	32520	
6023	0	32016	
6024	0	32090	
6025	0	32808	
6026	0	32964	
6027	0	32597	
6028	0	32596	
6029	0	32840	
6030	0	32900	
6031	0	32916	
6032	0	32820	
6033	0	32676	
6034	0	32708	
6035	0	32520	
6036	0	32684	
6037	0	33030	
6038	0	32861	
6039	0	32714	
6040	0	32640	
6041	0	32948	
6042	0	32924	
6043	0	32740	
6044	0	32692	
6045	0	32880	
6046	0	32858	
6047	0	32664	
6048	0	32706	
6049	0	33160	
6050	0	33124	
6051	0	32736	
6052	0	32404	
6053	0	32637	
6054	0	32604	
6055	0	32560	
6056	0	32816	
6057	0	32880	
6058	0	32802	
6059	0	32872	
6060	0	32988	
6061	0	33104	
6062	0	33232	
6063	0	33036	
6064	0	32426	
6065	0	32124	
6066	0	32124	
6067	0	32625	
6068	0	32972	
6069	0	33384	
6070	0	33509	
6071	0	32988	
6072	0	32612	
6073	0	32564	
6074	0	32556	
6075	0	32532	
6076	0	32368	
6077	0	32263	
6078	0	32328	
6079	0	32660	
6080	0	32920	
6081	0	33048	
6082	0	33121	
6083	0	33270	
6084	0	33652	
6085	0	33548	
6086	0	32960	
6087	0	32214	
6088	0	32348	
6089	0	32508	
6090	0	32644	
6091	0	33016	
6092	0	32656	
6093	0	32621	
6094	0	32720	
6095	0	32648	
6096	0	32495	
6097	0	32500	
6098	0	32604	
6099	0	32772	
6100	0	32852	
6101	0	32968	
6102	0	32984	
6103	0	32980	
6104	0	32944	
6105	0	32945	
6106	0	32968	
6107	0	32956	
6108	0	32908	
6109	0	32744	
6110	0	32889	
6111	0	32770	
6112	0	32576	
6113	0	32568	
6114	0	32712	
6115	0	32536	
6116	0	32580	
6117	0	32495	
6118	0	32704	
6119	0	32821	
6120	0	32824	
6121	0	32832	
6122	0	32826	
6123	0	32893	
6124	0	33156	
6125	0	32920	
6126	0	32612	
6127	0	32713	
6128	0	33126	
6129	0	33044	
6130	0	32836	
6131	0	32560	
6132	0	32460	
6133	0	32444	
6134	0	32456	
6135	0	32472	
6136	0	32645	
6137	0	32292	
6138	0	32332	
6139	0	32621	
6140	0	33272	
6141	0	33340	
6142	0	33261	
6143	0	33348	
6144	0	33393	
6145	0	33136	
6146	0	32656	
6147	0	32549	
6148	0	32240	
6149	0	32309	
6150	0	32668	
6151	0	32573	
6152	0	32472	
6153	0	32326	
6154	0	32472	
6155	0	32366	
6156	0	32297	
6157	0	33120	
6158	0	33740	
6159	0	33761	
6160	0	33452	
6161	0	33221	
6162	0	32900	
6163	0	32552	
6164	0	32588	
6165	0	32656	
6166	0	33140	
6167	0	33856	
6168	0	33092	
6169	0	32776	
6170	0	32348	
6171	0	32526	
6172	0	32716	
6173	0	32664	
6174	0	32730	
6175	0	32453	
6176	0	32416	
6177	0	32337	
6178	0	32548	
6179	0	32679	
6180	0	32812	
6181	0	32904	
6182	0	32900	
6183	0	32830	
6184	0	32784	
6185	0	32732	
6186	0	32856	
6187	0	32988	
6188	0	32900	
6189	0	32768	
6190	0	32832	
6191	0	32932	
6192	0	32692	
6193	0	32532	
6194	0	32568	
6195	0	32622	
6196	0	32472	
6197	0	32532	
6198	0	32312	
6199	0	32581	
6200	0	32576	
6201	0	32896	
6202	0	33140	
6203	0	33128	
6204	0	33146	
6205	0	33076	
6206	0	33148	
6207	0	32936	
6208	0	32832	
6209	0	32776	
6210	0	32884	
6211	0	32764	
6212	0	32660	
6213	0	32532	
6214	0	32616	
6215	0	32444	
6216	0	32396	
6217	0	32512	
6218	0	32632	
6219	0	32997	
6220	0	33092	
6221	0	33544	
6222	0	32892	
6223	0	32424	
6224	0	32622	
6225	0	32724	
6226	0	32565	
6227	0	32832	
6228	0	33236	
6229	0	33553	
6230	0	33104	
6231	0	32772	
6232	0	32780	
6233	0	32636	
6234	0	31876	
6235	0	32060	
6236	0	32248	
6237	0	32224	
6238	0	32388	
6239	0	32932	
6240	0	33284	
6241	0	33504	
6242	0	33629	
6243	0	33486	
6244	0	33104	
6245	0	33005	
6246	0	32916	
6247	0	32840	
6248	0	32848	
6249	0	32272	
6250	0	32052	
6251	0	31904	
6252	0	32012	
6253	0	32388	
6254	0	32908	
6255	0	33360	
6256	0	33244	
6257	0	32952	
6258	0	32865	
6259	0	32840	
6260	0	32956	
6261	0	33028	
6262	0	33152	
6263	0	33184	
6264	0	32800	
6265	0	32917	
6266	0	33000	
6267	0	32808	
6268	0	32614	
6269	0	32709	
6270	0	32664	
6271	0	32540	
6272	0	32560	
6273	0	32680	
6274	0	32662	
6275	0	32716	
6276	0	32516	
6277	0	32420	
6278	0	32608	
6279	0	32724	
6280	0	32680	
6281	0	32844	
6282	0	32948	
6283	0	32892	
6284	0	32668	
6285	0	32468	
6286	0	32828	
6287	0	32832	
6288	0	32764	
6289	0	33004	
6290	0	33164	
6291	0	33252	
6292	0	33348	
6293	0	32988	
6294	0	32592	
6295	0	32628	
6296	0	32570	
6297	0	32488	
6298	0	32552	
6299	0	32724	
6300	0	33026	
6301	0	32996	
6302	0	32964	
6303	0	32440	
6304	0	32392	
6305	0	32777	
6306	0	32932	
6307	0	32808	
6308	0	32652	
6309	0	32792	
6310	0	33012	
6311	0	32764	
6312	0	32636	
6313	0	32580	
6314	0	32544	
6315	0	32556	
6316	0	32389	
6317	0	32508	
6318	0	33184	
6319	0	32964	
6320	0	32748	
6321	0	32840	
6322	0	32912	
6323	0	32905	
6324	0	32768	
6325	0	32884	
6326	0	32988	
6327	0	33084	
6328	0	33332	
6329	0	33204	
6330	0	33084	
6331	0	32456	
6332	0	31948	
6333	0	32216	
6334	0	32384	
6335	0	32664	
6336	0	32420	
6337	0	32714	
6338	0	32976	
6339	0	33073	
6340	0	33086	
6341	0	33100	
6342	0	32960	
6343	0	32968	
6344	0	33174	
6345	0	32940	
6346	0	32408	
6347	0	32605	
6348	0	32820	
6349	0	32708	
6350	0	32668	
6351	0	32768	
6352	0	32692	
6353	0	32780	
6354	0	32664	
6355	0	32516	
6356	0	32508	
6357	0	32388	
6358	0	32413	
6359	0	32744	
6360	0	32820	
6361	0	32956	
6362	0	33192	
6363	0	33488	
6364	0	33288	
6365	0	32908	
6366	0	33064	
6367	0	33168	
6368	0	32996	
6369	0	32820	
6370	0	32664	
6371	0	32628	
6372	0	32840	
6373	0	32544	
6374	0	32368	
6375	0	32372	
6376	0	32672	
6377	0	32865	
6378	0	32556	
6379	0	32485	
6380	0	32400	
6381	0	32844	
6382	0	32728	
6383	0	32708	
6384	0	32910	
6385	0	32948	
6386	0	33024	
6387	0	32968	
6388	0	33012	
6389	0	32992	
6390	0	32872	
6391	0	33053	
6392	0	32604	
6393	0	32796	
6394	0	32276	
6395	0	32632	
6396	0	32336	
6397	0	32140	
6398	0	32944	
6399	0	33220	
6400	0	32860	
6401	0	32928	
6402	0	33128	
6403	0	32768	
6404	0	32704	
6405	0	32982	
6406	0	33076	
6407	0	33048	
6408	0	32878	
6409	0	32732	
6410	0	32352	
6411	0	32496	
6412	0	32800	
6413	0	32800	
6414	0	32876	
6415	0	32493	
6416	0	32132	
6417	0	32004	
6418	0	32312	
6419	0	32716	
6420	0	33077	
6421	0	33404	
6422	0	33404	
6423	0	33284	
6424	0	32744	
6425	0	32756	
6426	0	33080	
6427	0	33440	
6428	0	33170	
6429	0	33064	
6430	0	32920	
6431	0	32800	
6432	0	32628	
6433	0	32448	
6434	0	32440	
6435	0	32512	
6436	0	32596	
6437	0	32664	
6438	0	32480	
6439	0	32724	
6440	0	33196	
6441	0	32920	
6442	0	32348	
6443	0	32340	
6444	0	32792	
6445	0	32717	
6446	0	32588	
6447	0	32788	
6448	0	33132	
6449	0	33020	
6450	0	32952	
6451	0	32696	
6452	0	32668	
6453	0	32804	
6454	0	32744	
6455	0	32480	
6456	0	32676	
6457	0	32776	
6458	0	32750	
6459	0	33204	
6460	0	33154	
6461	0	32356	
6462	0	31752	
6463	0	31676	
6464	0	32428	
6465	0	32964	
6466	0	33256	
6467	0	33604	
6468	0	33316	
6469	0	33094	
6470	0	32708	
6471	0	32686	
6472	0	33180	
6473	0	33304	
6474	0	33380	
6475	0	33280	
6476	0	32952	
6477	0	32696	
6478	0	32408	
6479	0	32536	
6480	0	32548	
6481	0	32556	
6482	0	32604	
6483	0	33080	
6484	0	33076	
6485	0	32684	
6486	0	32436	
6487	0	31977	
6488	0	31800	
6489	0	31784	
6490	0	32160	
6491	0	32644	
6492	0	33212	
6493	0	33612	
6494	0	33512	
6495	0	33524	
6496	0	33424	
6497	0	33252	
6498	0	33064	
6499	0	32996	
6500	0	33060	
6501	0	33065	
6502	0	32765	
6503	0	32596	
6504	0	32596	
6505	0	32832	
6506	0	32840	
6507	0	32480	
6508	0	32576	
6509	0	32612	
6510	0	32652	
6511	0	32544	
6512	0	32608	
6513	0	32472	
6514	0	32384	
6515	0	32472	
6516	0	32564	
6517	0	32468	
6518	0	32600	
6519	0	32880	
6520	0	33090	
6521	0	32864	
6522	0	32788	
6523	0	33056	
6524	0	32988	
6525	0	32832	
6526	0	32741	
6527	0	32860	
6528	0	32996	
6529	0	33422	
6530	0	33168	
6531	0	32836	
6532	0	32480	
6533	0	32288	
6534	0	32436	
6535	0	32164	
6536	0	32392	
6537	0	32512	
6538	0	32556	
6539	0	32844	
6540	0	33217	
6541	0	33116	
6542	0	32836	
6543	0	32864	
6544	0	33029	
6545	0	32968	
6546	0	32932	
6547	0	33080	
6548	0	33064	
6549	0	32888	
6550	0	32924	
6551	0	32932	
6552	0	32448	
6553	0	32445	
6554	0	32364	
6555	0	32448	
6556	0	32536	
6557	0	32712	
6558	0	32440	
6559	0	32752	
6560	0	32852	
6561	0	32904	
6562	0	32900	
6563	0	32888	
6564	0	32988	
6565	0	33128	
6566	0	32876	
6567	0	32384	
6568	0	32312	
6569	0	32172	
6570	0	32460	
6571	0	32965	
6572	0	33412	
6573	0	33440	
6574	0	33380	
6575	0	33344	
6576	0	33280	
6577	0	33277	
6578	0	33184	
6579	0	33161	
6580	0	32925	
6581	0	32690	
6582	0	32284	
6583	0	31900	
6584	0	32084	
6585	0	32442	
6586	0	32628	
6587	0	32836	
6588	0	32604	
6589	0	32912	
6590	0	32972	
6591	0	32900	
6592	0	32844	
6593	0	32524	
6594	0	32516	
6595	0	32620	
6596	0	32604	
6597	0	32612	
6598	0	32881	
6599	0	32912	
6600	0	32768	
6601	0	32840	
6602	0	32856	
6603	0	33020	
6604	0	32992	
6605	0	32944	
6606	0	32840	
6607	0	32800	
6608	0	32852	
6609	0	33012	
6610	0	32884	
6611	0	32748	
6612	0	32628	
6613	0	32732	
6614	0	32944	
6615	0	32737	
6616	0	32552	
6617	0	32422	
6618	0	32424	
6619	0	32332	
6620	0	32780	
6621	0	33085	
6622	0	32838	
6623	0	32612	
6624	0	32656	
6625	0	32964	
6626	0	33200	
6627	0	33104	
6628	0	32824	
6629	0	33076	
6630	0	33160	
6631	0	32968	
6632	0	32868	
6633	0	32824	
6634	0	32568	
6635	0	32420	
6636	0	32352	
6637	0	32172	
6638	0	32264	
6639	0	32524	
6640	0	32886	
6641	0	33020	
6642	0	33344	
6643	0	33196	
6644	0	33476	
6645	0	33024	
6646	0	32196	
6647	0	32364	
6648	0	32697	
6649	0	33060	
6650	0	33100	
6651	0	32796	
6652	0	32472	
6653	0	32256	
6654	0	32496	
6655	0	32500	
6656	0	32552	
6657	0	32572	
6658	0	32704	
6659	0	32876	
6660	0	33060	
6661	0	32948	
6662	0	32943	
6663	0	32864	
6664	0	32968	
6665	0	33216	
6666	0	33146	
6667	0	33020	
6668	0	33105	
6669	0	33164	
6670	0	32708	
6671	0	32249	
6672	0	32480	
6673	0	32552	
6674	0	32844	
6675	0	32708	
6676	0	32268	
6677	0	32252	
6678	0	32584	
6679	0	32614	
6680	0	32536	
6681	0	32824	
6682	0	33004	
6683	0	32853	
6684	0	32908	
6685	0	33056	
6686	0	33248	
6687	0	33519	
6688	0	33744	
6689	0	33301	
6690	0	32804	
6691	0	32485	
6692	0	32348	
6693	0	32324	
6694	0	32544	
6695	0	32700	
6696	0	32698	
6697	0	32757	
6698	0	32628	
6699	0	32552	
6700	0	32596	
6701	0	32660	
6702	0	32704	
6703	0	32552	
6704	0	32680	
6705	0	32696	
6706	0	32852	
6707	0	32660	
6708	0	32460	
6709	0	32756	
6710	0	32892	
6711	0	33077	
6712	0	33125	
6713	0	33028	
6714	0	33176	
6715	0	33173	
6716	0	33052	
6717	0	32736	
6718	0	32500	
6719	0	32488	
6720	0	32420	
6721	0	32520	
6722	0	32704	
6723	0	32732	
6724	0	32758	
6725	0	32879	
6726	0	32900	
6727	0	33134	
6728	0	33153	
6729	0	33016	
6730	0	32856	
6731	0	32992	
6732	0	32784	
6733	0	32428	
6734	0	32448	
6735	0	32744	
6736	0	32498	
6737	0	31972	
6738	0	32456	
6739	0	32560	
6740	0	32988	
6741	0	33440	
6742	0	33189	
6743	0	33016	
6744	0	32782	
6745	0	32726	
6746	0	32884	
6747	0	32820	
6748	0	32792	
6749	0	32782	
6750	0	32868	
6751	0	33164	
6752	0	33008	
6753	0	32424	
6754	0	32556	
6755	0	32608	
6756	0	32236	
6757	0	32300	
6758	0	32504	
6759	0	32556	
6760	0	33100	
6761	0	32968	
6762	0	32676	
6763	0	32910	
6764	0	33036	
6765	0	33056	
6766	0	33036	
6767	0	32989	
6768	0	32868	
6769	0	32756	
6770	0	32844	
6771	0	32652	
6772	0	32708	
6773	0	32832	
6774	0	32728	
6775	0	32636	
6776	0	32412	
6777	0	32488	
6778	0	32324	
6779	0	32544	
6780	0	32792	
6781	0	33096	
6782	0	33005	
6783	0	32768	
6784	0	32472	
6785	0	32569	
6786	0	32948	
6787	0	33452	
6788	0	33004	
6789	0	32936	
6790	0	33008	
6791	0	33160	
6792	0	32744	
6793	0	32664	
6794	0	32717	
6795	0	32376	
6796	0	32093	
6797	0	32352	
6798	0	32580	
6799	0	32720	
6800	0	33004	
6801	0	33044	
6802	0	33008	
6803	0	33089	
6804	0	33112	
6805	0	32969	
6806	0	32912	
6807	0	32976	
6808	0	33440	
6809	0	33472	
6810	0	33028	
6811	0	32300	
6812	0	32188	
6813	0	32284	
6814	0	32336	
6815	0	32318	
6816	0	32665	
6817	0	32396	
6818	0	32188	
6819	0	32436	
6820	0	32972	
6821	0	33040	
6822	0	33040	
6823	0	32884	
6824	0	32868	
6825	0	32964	
6826	0	33064	
6827	0	33044	
6828	0	32956	
6829	0	33032	
6830	0	32834	
6831	0	32612	
6832	0	32852	
6833	0	32860	
6834	0	32720	
6835	0	32824	
6836	0	32560	
6837	0	32108	
6838	0	32464	
6839	0	32520	
6840	0	32288	
6841	0	32504	
6842	0	33008	
6843	0	33256	
6844	0	33376	
6845	0	32856	
6846	0	32588	
6847	0	33332	
6848	0	33372	
6849	0	33254	
6850	0	33164	
6851	0	33140	
6852	0	32904	
6853	0	32454	
6854	0	32334	
6855	0	32310	
6856	0	32104	
6857	0	32184	
6858	0	32316	
6859	0	32778	
6860	0	32772	
6861	0	32960	
6862	0	32964	
6863	0	32716	
6864	0	33102	
6865	0	33244	
6866	0	33001	
6867	0	32892	
6868	0	32804	
6869	0	32612	
6870	0	32740	
6871	0	33124	
6872	0	33060	
6873	0	32628	
6874	0	32696	
6875	0	32580	
6876	0	32280	
6877	0	32456	
6878	0	32476	
6879	0	32452	
6880	0	32588	
6881	0	32968	
6882	0	33076	
6883	0	33216	
6884	0	32954	
6885	0	32916	
6886	0	32852	
6887	0	32940	
6888	0	32980	
6889	0	33132	
6890	0	33125	
6891	0	32888	
6892	0	32624	
6893	0	32140	
6894	0	32104	
6895	0	32374	
6896	0	32681	
6897	0	32661	
6898	0	32692	
6899	0	32792	
6900	0	32832	
6901	0	32712	
6902	0	33145	
6903	0	33464	
6904	0	33292	
6905	0	32890	
6906	0	32620	
6907	0	32448	
6908	0	32704	
6909	0	33008	
6910	0	33036	
6911	0	33125	
6912	0	32720	
6913	0	32236	
6914	0	32310	
6915	0	32521	
6916	0	32680	
6917	0	32396	
6918	0	32492	
6919	0	32688	
6920	0	32810	
6921	0	32892	
6922	0	33188	
6923	0	33084	
6924	0	32728	
6925	0	32924	
6926	0	32989	
6927	0	32776	
6928	0	32853	
6929	0	33012	
6930	0	32992	
6931	0	32476	
6932	0	32108	
6933	0	32504	
6934	0	32692	
6935	0	32808	
6936	0	32784	
6937	0	32866	
6938	0	33008	
6939	0	32868	
6940	0	32756	
6941	0	32944	
6942	0	32788	
6943	0	32824	
6944	0	32788	
6945	0	32712	
6946	0	32900	
6947	0	33180	
6948	0	32772	
6949	0	32756	
6950	0	32902	
6951	0	32792	
6952	0	32729	
6953	0	32808	
6954	0	32776	
6955	0	32620	
6956	0	32496	
6957	0	32316	
6958	0	32460	
6959	0	32200	
6960	0	32048	
6961	0	32256	
6962	0	32736	
6963	0	33092	
6964	0	33348	
6965	0	33624	
6966	0	33904	
6967	0	33684	
6968	0	33469	
6969	0	33152	
6970	0	32784	
6971	0	32736	
6972	0	32664	
6973	0	32616	
6974	0	32420	
6975	0	32137	
6976	0	32400	
6977	0	32520	
6978	0	32580	
6979	0	32244	
6980	0	32260	
6981	0	32576	
6982	0	32868	
6983	0	32880	
6984	0	32832	
6985	0	32884	
6986	0	32948	
6987	0	32944	
6988	0	32892	
6989	0	32984	
6990	0	32896	
6991	0	32812	
6992	0	33244	
6993	0	32852	
6994	0	32724	
6995	0	32536	
6996	0	32584	
6997	0	32656	
6998	0	32404	
6999	0	32600	
7000	0	32832	
7001	0	32704	
7002	0	32578	
7003	0	32716	
7004	0	32942	
7005	0	33208	
7006	0	33160	
7007	0	33064	
7008	0	32846	
7009	0	32909	
7010	0	32880	
7011	0	32730	
7012	0	32672	
7013	0	32652	
7014	0	32708	
7015	0	32476	
7016	0	32302	
7017	0	32480	
7018	0	32598	
7019	0	32872	
7020	0	32664	
7021	0	32714	
7022	0	32792	
7023	0	32644	
7024	0	32744	
7025	0	32981	
7026	0	33072	
7027	0	33236	
7028	0	33132	
7029	0	32968	
7030	0	32984	
7031	0	33000	
7032	0	32824	
7033	0	32732	
7034	0	32744	
7035	0	32748	
7036	0	32490	
7037	0	32456	
7038	0	32644	
7039	0	32604	
7040	0	32584	
7041	0	32720	
7042	0	32816	
7043	0	33005	
7044	0	32848	
7045	0	32908	
7046	0	32877	
7047	0	32928	
7048	0	32844	
7049	0	32904	
7050	0	32894	
7051	0	33040	
7052	0	32702	
7053	0	32760	
7054	0	32245	
7055	0	32096	
7056	0	32364	
7057	0	32612	
7058	0	32460	
7059	0	32644	
7060	0	33300	
7061	0	33324	
7062	0	33152	
7063	0	32840	
7064	0	32836	
7065	0	32972	
7066	0	32880	
7067	0	32904	
7068	0	32856	
7069	0	32952	
7070	0	32880	
7071	0	32877	
7072	0	32836	
7073	0	32664	
7074	0	32500	
7075	0	32612	
7076	0	32584	
7077	0	32605	
7078	0	32674	
7079	0	32730	
7080	0	32868	
7081	0	32552	
7082	0	32704	
7083	0	32768	
7084	0	32924	
7085	0	33188	
7086	0	32925	
7087	0	32252	
7088	0	32512	
7089	0	32892	
7090	0	33024	
7091	0	33012	
7092	0	32900	
7093	0	32772	
7094	0	32588	
7095	0	32662	
7096	0	32540	
7097	0	32596	
7098	0	32656	
7099	0	32724	
7100	0	32868	
7101	0	32888	
7102	0	32928	
7103	0	32816	
7104	0	32636	
7105	0	32672	
7106	0	32878	
7107	0	32860	
7108	0	32924	
7109	0	33220	
7110	0	33336	
7111	0	33020	
7112	0	32737	
7113	0	32590	
7114	0	32696	
7115	0	32592	
7116	0	32560	
7117	0	32424	
7118	0	32564	
7119	0	32653	
7120	0	32928	
7121	0	33024	
7122	0	33152	
7123	0	32908	
7124	0	32332	
7125	0	32156	
7126	0	32404	
7127	0	32664	
7128	0	32877	
7129	0	33152	
7130	0	33612	
7131	0	33460	
7132	0	33116	
7133	0	32902	
7134	0	32750	
7135	0	32292	
7136	0	32193	
7137	0	32568	
7138	0	32712	
7139	0	32688	
7140	0	32738	
7141	0	32768	
7142	0	32692	
7143	0	32664	
7144	0	32780	
7145	0	32756	
7146	0	32708	
7147	0	33160	
7148	0	33088	
7149	0	32964	
7150	0	32860	
7151	0	32741	
7152	0	32564	
7153	0	32528	
7154	0	32748	
7155	0	32960	
7156	0	32864	
7157	0	32392	
7158	0	32396	
7159	0	32712	
7160	0	32993	
7161	0	33092	
7162	0	33116	
7163	0	33118	
7164	0	32448	
7165	0	32308	
7166	0	32572	
7167	0	32996	
7168	0	32740	
7169	0	32804	
7170	0	32916	
7171	0	33008	
7172	0	32868	
7173	0	32676	
7174	0	32568	
7175	0	32608	
7176	0	32416	
7177	0	32316	
7178	0	32412	
7179	0	32578	
7180	0	32784	
7181	0	33116	
7182	0	33380	
7183	0	33356	
7184	0	33260	
7185	0	33020	
7186	0	33140	
7187	0	33060	
7188	0	32760	
7189	0	32724	
7190	0	32732	
7191	0	32770	
7192	0	32648	
7193	0	32636	
7194	0	32536	
7195	0	32664	
7196	0	32568	
7197	0	32308	
7198	0	32448	
7199	0	32496	
7200	0	32624	
7201	0	32972	
7202	0	33180	
7203	0	33468	
7204	0	33036	
7205	0	32892	
7206	0	32612	
7207	0	32716	
7208	0	32760	
7209	0	32616	
7210	0	32532	
7211	0	32624	
7212	0	32764	
7213	0	32648	
7214	0	32802	
7215	0	32884	
7216	0	32695	
7217	0	32660	
7218	0	32616	
7219	0	32508	
7220	0	32896	
7221	0	33048	
7222	0	33164	
7223	0	32928	
7224	0	32885	
7225	0	32708	
7226	0	32765	
7227	0	33030	
7228	0	33176	
7229	0	33088	
7230	0	32916	
7231	0	32832	
7232	0	32728	
7233	0	32576	
7234	0	32296	
7235	0	32268	
7236	0	32164	
7237	0	32092	
7238	0	32512	
7239	0	32884	
7240	0	33056	
7241	0	32924	
7242	0	32900	
7243	0	32969	
7244	0	33156	
7245	0	33348	
7246	0	33180	
7247	0	32960	
7248	0	33040	
7249	0	32882	
7250	0	32732	
7251	0	32792	
7252	0	32572	
7253	0	32568	
7254	0	32600	
7255	0	32804	
7256	0	32748	
7257	0	32568	
7258	0	32344	
7259	0	32536	
7260	0	32748	
7261	0	32653	
7262	0	32744	
7263	0	32792	
7264	0	32524	
7265	0	32845	
7266	0	33228	
7267	0	32865	
7268	0	32932	
7269	0	32952	
7270	0	33088	
7271	0	33136	
7272	0	32732	
7273	0	32677	
7274	0	32668	
7275	0	32462	
7276	0	32556	
7277	0	32524	
7278	0	32224	
7279	0	32332	
7280	0	32860	
7281	0	33006	
7282	0	33036	
7283	0	32992	
7284	0	32648	
7285	0	32744	
7286	0	32820	
7287	0	32964	
7288	0	32968	
7289	0	32832	
7290	0	32773	
7291	0	32832	
7292	0	32996	
7293	0	32888	
7294	0	32896	
7295	0	32948	
7296	0	32985	
7297	0	32948	
7298	0	32316	
7299	0	32404	
7300	0	32468	
7301	0	32656	
7302	0	32764	
7303	0	32816	
7304	0	32832	
7305	0	32860	
7306	0	32920	
7307	0	32928	
7308	0	32848	
7309	0	32812	
7310	0	33018	
7311	0	33032	
7312	0	32903	
7313	0	32816	
7314	0	32704	
7315	0	32688	
7316	0	32512	
7317	0	32386	
7318	0	32552	
7319	0	32404	
7320	0	32776	
7321	0	33061	
7322	0	32876	
7323	0	32596	
7324	0	32652	
7325	0	32768	
7326	0	32840	
7327	0	32818	
7328	0	32896	
7329	0	33108	
7330	0	33237	
7331	0	32960	
7332	0	33004	
7333	0	32932	
7334	0	32620	
7335	0	32564	
7336	0	32452	
7337	0	32568	
7338	0	32296	
7339	0	32112	
7340	0	32432	
7341	0	33068	
7342	0	32904	
7343	0	32772	
7344	0	32645	
7345	0	32740	
7346	0	33140	
7347	0	33216	
7348	0	33240	
7349	0	33052	
7350	0	32796	
7351	0	32880	
7352	0	32932	
7353	0	32812	
7354	0	32816	
7355	0	32781	
7356	0	32580	
7357	0	32462	
7358	0	32564	
7359	0	32788	
7360	0	32628	
7361	0	32469	
7362	0	32592	
7363	0	32620	
7364	0	32888	
7365	0	32932	
7366	0	32940	
7367	0	32752	
7368	0	32728	
7369	0	33145	
7370	0	33320	
7371	0	33248	
7372	0	32708	
7373	0	32372	
7374	0	32656	
7375	0	32816	
7376	0	32712	
7377	0	32696	
7378	0	32580	
7379	0	32564	
7380	0	32584	
7381	0	32782	
7382	0	32892	
7383	0	32952	
7384	0	33052	
7385	0	32800	
7386	0	32888	
7387	0	33048	
7388	0	33036	
7389	0	32793	
7390	0	33032	
7391	0	33012	
7392	0	32688	
7393	0	32380	
7394	0	32330	
7395	0	32445	
7396	0	32628	
7397	0	32478	
7398	0	32392	
7399	0	32616	
7400	0	32800	
7401	0	32580	
7402	0	32584	
7403	0	32909	
7404	0	32960	
7405	0	33176	
7406	0	33160	
7407	0	33224	
7408	0	33188	
7409	0	33132	
7410	0	32836	
7411	0	32716	
7412	0	32692	
7413	0	32708	
7414	0	32340	
7415	0	32384	
7416	0	32772	
7417	0	32662	
7418	0	32536	
7419	0	32448	
7420	0	32584	
7421	0	32864	
7422	0	33316	
7423	0	33344	
7424	0	32812	
7425	0	32552	
7426	0	32776	
7427	0	33016	
7428	0	33321	
7429	0	33348	
7430	0	32792	
7431	0	32836	
7432	0	32476	
7433	0	32408	
7434	0	32356	
7435	0	32352	
7436	0	32362	
7437	0	32600	
7438	0	32836	
7439	0	32524	
7440	0	32492	
7441	0	32662	
7442	0	32996	
7443	0	33292	
7444	0	33140	
7445	0	33061	
7446	0	32808	
7447	0	32808	
7448	0	32716	
7449	0	32968	
7450	0	33188	
7451	0	33136	
7452	0	32852	
7453	0	32508	
7454	0	32484	
7455	0	32644	
7456	0	32444	
7457	0	32448	
7458	0	32632	
7459	0	32724	
7460	0	32692	
7461	0	32784	
7462	0	32804	
7463	0	33076	
7464	0	33152	
7465	0	33000	
7466	0	32828	
7467	0	32812	
7468	0	32688	
7469	0	32732	
7470	0	32796	
7471	0	32896	
7472	0	32840	
7473	0	32756	
7474	0	32748	
7475	0	32676	
7476	0	32645	
7477	0	32564	
7478	0	32356	
7479	0	32532	
7480	0	32700	
7481	0	32812	
7482	0	32876	
7483	0	32917	
7484	0	32892	
7485	0	33072	
7486	0	33308	
7487	0	32980	
7488	0	32928	
7489	0	32824	
7490	0	32806	
7491	0	32765	
7492	0	32928	
7493	0	32953	
7494	0	32352	
7495	0	32100	
7496	0	32256	
7497	0	32568	
7498	0	32636	
7499	0	32720	
7500	0	32607	
7501	0	32724	
7502	0	32536	
7503	0	32752	
7504	0	33104	
7505	0	33080	
7506	0	33008	
7507	0	33100	
7508	0	33240	
7509	0	32932	
7510	0	32736	
7511	0	32869	
7512	0	32916	
7513	0	32856	
7514	0	32574	
7515	0	32480	
7516	0	32512	
7517	0	32552	
7518	0	32736	
7519	0	32848	
7520	0	32476	
7521	0	32468	
7522	0	32744	
7523	0	32999	
7524	0	33129	
7525	0	32972	
7526	0	32864	
7527	0	32805	
7528	0	32900	
7529	0	32820	
7530	0	32888	
7531	0	33220	
7532	0	32958	
7533	0	32686	
7534	0	32792	
7535	0	32752	
7536	0	32544	
7537	0	32384	
7538	0	32336	
7539	0	32340	
7540	0	32272	
7541	0	32384	
7542	0	32695	
7543	0	32872	
7544	0	33172	
7545	0	33280	
7546	0	33452	
7547	0	33313	
7548	0	33160	
7549	0	33152	
7550	0	32908	
7551	0	32868	
7552	0	32606	
7553	0	32396	
7554	0	32384	
7555	0	32328	
7556	0	32460	
7557	0	32476	
7558	0	32452	
7559	0	32488	
7560	0	32724	
7561	0	32784	
7562	0	32672	
7563	0	32796	
7564	0	33132	
7565	0	33308	
7566	0	33292	
7567	0	32960	
7568	0	32740	
7569	0	32668	
7570	0	32794	
7571	0	33004	
7572	0	32928	
7573	0	33080	
7574	0	32828	
7575	0	32532	
7576	0	32544	
7577	0	32622	
7578	0	32436	
7579	0	32352	
7580	0	32464	
7581	0	32636	
7582	0	32820	
7583	0	33096	
7584	0	33054	
7585	0	33044	
7586	0	32848	
7587	0	32820	
7588	0	32844	
7589	0	32756	
7590	0	32868	
7591	0	32804	
7592	0	32768	
7593	0	32740	
7594	0	32712	
7595	0	32846	
7596	0	32700	
7597	0	32508	
7598	0	32500	
7599	0	32520	
7600	0	32652	
7601	0	32856	
7602	0	32976	
7603	0	33164	
7604	0	33192	
7605	0	32976	
7606	0	32864	
7607	0	32828	
7608	0	32672	
7609	0	32506	
7610	0	32576	
7611	0	32637	
7612	0	32780	
7613	0	32840	
7614	0	32680	
7615	0	32686	
7616	0	32636	
7617	0	32456	
7618	0	32500	
7619	0	32721	
7620	0	33092	
7621	0	33268	
7622	0	33049	
7623	0	32980	
7624	0	32908	
7625	0	32918	
7626	0	32685	
7627	0	32676	
7628	0	32936	
7629	0	32708	
7630	0	32720	
7631	0	32936	
7632	0	33256	
7633	0	33008	
7634	0	32676	
7635	0	32204	
7636	0	32036	
7637	0	32316	
7638	0	32516	
7639	0	32640	
7640	0	32684	
7641	0	32956	
7642	0	32916	
7643	0	32888	
7644	0	32788	
7645	0	32984	
7646	0	33060	
7647	0	33020	
7648	0	33092	
7649	0	33124	
7650	0	33084	
7651	0	33124	
7652	0	32772	
7653	0	32480	
7654	0	32508	
7655	0	32590	
7656	0	32600	
7657	0	32636	
7658	0	32792	
7659	0	32424	
7660	0	32441	
7661	0	32729	
7662	0	32816	
7663	0	32628	
7664	0	32830	
7665	0	32948	
7666	0	32908	
7667	0	32996	
7668	0	33116	
7669	0	33055	
7670	0	32864	
7671	0	32704	
7672	0	32913	
7673	0	32820	
7674	0	32460	
7675	0	32548	
7676	0	32495	
7677	0	32492	
7678	0	32477	
7679	0	32684	
7680	0	32828	
7681	0	32864	
7682	0	32796	
7683	0	32895	
7684	0	33032	
7685	0	33008	
7686	0	32892	
7687	0	32824	
7688	0	32920	
7689	0	32972	
7690	0	33020	
7691	0	32872	
7692	0	32718	
7693	0	32622	
7694	0	32648	
7695	0	32740	
7696	0	32320	
7697	0	31856	
7698	0	32072	
7699	0	32516	
7700	0	32852	
7701	0	33184	
7702	0	33348	
7703	0	33436	
7704	0	33416	
7705	0	33032	
7706	0	32920	
7707	0	32952	
7708	0	32809	
7709	0	32752	
7710	0	32876	
7711	0	32788	
7712	0	32676	
7713	0	32436	
7714	0	32404	
7715	0	32604	
7716	0	32568	
7717	0	32536	
7718	0	32520	
7719	0	32692	
7720	0	32800	
7721	0	32772	
7722	0	32924	
7723	0	32825	
7724	0	32868	
7725	0	32940	
7726	0	32528	
7727	0	32732	
7728	0	33052	
7729	0	32980	
7730	0	32972	
7731	0	32960	
7732	0	32852	
7733	0	32735	
7734	0	33056	
7735	0	32885	
7736	0	32580	
7737	0	32512	
7738	0	32332	
7739	0	32260	
7740	0	32452	
7741	0	32516	
7742	0	32540	
7743	0	32852	
7744	0	33276	
7745	0	33268	
7746	0	33284	
7747	0	33456	
7748	0	32933	
7749	0	32301	
7750	0	32310	
7751	0	32528	
7752	0	32726	
7753	0	33028	
7754	0	32778	
7755	0	32756	
7756	0	32352	
7757	0	32288	
7758	0	32520	
7759	0	32736	
7760	0	32924	
7761	0	32860	
7762	0	32980	
7763	0	32948	
7764	0	32894	
7765	0	33031	
7766	0	32948	
7767	0	32988	
7768	0	32844	
7769	0	32808	
7770	0	33016	
7771	0	33068	
7772	0	32806	
7773	0	32384	
7774	0	32368	
7775	0	32652	
7776	0	32792	
7777	0	32980	
7778	0	32668	
7779	0	32544	
7780	0	32508	
7781	0	32820	
7782	0	32876	
7783	0	32920	
7784	0	32876	
7785	0	32880	
7786	0	32872	
7787	0	32752	
7788	0	32792	
7789	0	32872	
7790	0	32964	
7791	0	33048	
7792	0	32908	
7793	0	32720	
7794	0	32676	
7795	0	32724	
7796	0	32496	
7797	0	32328	
7798	0	32228	
7799	0	32548	
7800	0	32548	
7801	0	32904	
7802	0	32952	
7803	0	33062	
7804	0	33096	
7805	0	32924	
7806	0	32968	
7807	0	32986	
7808	0	32896	
7809	0	32909	
7810	0	32980	
7811	0	32998	
7812	0	32920	
7813	0	32660	
7814	0	32584	
7815	0	32560	
7816	0	32612	
7817	0	32740	
7818	0	32748	
7819	0	32400	
7820	0	32540	
7821	0	32612	
7822	0	32520	
7823	0	32613	
7824	0	33408	
7825	0	33904	
7826	0	33589	
7827	0	32800	
7828	0	32024	
7829	0	32249	
7830	0	32877	
7831	0	32860	
7832	0	32470	
7833	0	32578	
7834	0	32516	
7835	0	32460	
7836	0	32492	
7837	0	32564	
7838	0	32625	
7839	0	32580	
7840	0	32873	
7841	0	33085	
7842	0	33044	
7843	0	33176	
7844	0	33072	
7845	0	33088	
7846	0	33148	
7847	0	33047	
7848	0	32960	
7849	0	32868	
7850	0	32886	
7851	0	32736	
7852	0	32744	
7853	0	32636	
7854	0	32468	
7855	0	32536	
7856	0	32556	
7857	0	32396	
7858	0	32320	
7859	0	32476	
7860	0	32640	
7861	0	32736	
7862	0	32952	
7863	0	32952	
7864	0	32976	
7865	0	33018	
7866	0	32972	
7867	0	32988	
7868	0	32950	
7869	0	32780	
7870	0	32760	
7871	0	32800	
7872	0	32984	
7873	0	32910	
7874	0	32770	
7875	0	32768	
7876	0	32640	
7877	0	32420	
7878	0	32390	
7879	0	32464	
7880	0	32580	
7881	0	32776	
7882	0	32780	
7883	0	32984	
7884	0	32885	
7885	0	32856	
7886	0	32844	
7887	0	33080	
7888	0	32988	
7889	0	32952	
7890	0	33004	
7891	0	32932	
7892	0	33232	
7893	0	32964	
7894	0	32820	
7895	0	32608	
7896	0	32212	
7897	0	32302	
7898	0	32168	
7899	0	32074	
7900	0	32460	
7901	0	32684	
7902	0	33116	
7903	0	33416	
7904	0	33252	
7905	0	33020	
7906	0	32820	
7907	0	32944	
7908	0	32532	
7909	0	32760	
7910	0	32708	
7911	0	32736	
7912	0	32961	
7913	0	33004	
7914	0	32830	
7915	0	32596	
7916	0	32552	
7917	0	32517	
7918	0	32708	
7919	0	32502	
7920	0	32548	
7921	0	32728	
7922	0	32976	
7923	0	33028	
7924	0	33064	
7925	0	32748	
7926	0	32844	
7927	0	32864	
7928	0	32968	
7929	0	32989	
7930	0	33000	
7931	0	32988	
7932	0	32932	
7933	0	32716	
7934	0	32534	
7935	0	32544	
7936	0	32444	
7937	0	32536	
7938	0	32512	
7939	0	32348	
7940	0	32548	
7941	0	32837	
7942	0	32920	
7943	0	32932	
7944	0	33080	
7945	0	33076	
7946	0	33172	
7947	0	33305	
7948	0	33024	
7949	0	33012	
7950	0	32824	
7951	0	32720	
7952	0	32872	
7953	0	32624	
7954	0	32292	
7955	0	32304	
7956	0	32656	
7957	0	32485	
7958	0	32680	
7959	0	32564	
7960	0	32428	
7961	0	32780	
7962	0	33136	
7963	0	33180	
7964	0	33044	
7965	0	32716	
7966	0	32652	
7967	0	32945	
7968	0	32936	
7969	0	32980	
7970	0	32968	
7971	0	32952	
7972	0	32820	
7973	0	32808	
7974	0	32900	
7975	0	32624	
7976	0	32644	
7977	0	32568	
7978	0	32168	
7979	0	32052	
7980	0	32540	
7981	0	32952	
7982	0	32904	
7983	0	32888	
7984	0	32896	
7985	0	33024	
7986	0	32980	
7987	0	33036	
7988	0	33136	
7989	0	32912	
7990	0	32992	
7991	0	33062	
7992	0	33048	
7993	0	32448	
7994	0	32340	
7995	0	32452	
7996	0	32644	
7997	0	32544	
7998	0	32272	
7999	0	32588	
8000	0	32800	
8001	0	32932	
8002	0	32940	
8003	0	32848	
8004	0	33096	
8005	0	32992	
8006	0	32892	
8007	0	32977	
8008	0	32852	
8009	0	32736	
8010	0	32864	
8011	0	32821	
8012	0	33036	
8013	0	32936	
8014	0	32568	
8015	0	32296	
8016	0	32308	
8017	0	32376	
8018	0	32608	
8019	0	32632	
8020	0	32752	
8021	0	32816	
8022	0	32764	
8023	0	33018	
8024	0	33080	
8025	0	32908	
8026	0	32845	
8027	0	32852	
8028	0	32976	
8029	0	32984	
8030	0	32972	
8031	0	32993	
8032	0	32868	
8033	0	32644	
8034	0	32464	
8035	0	32608	
8036	0	32588	
8037	0	32388	
8038	0	32420	
8039	0	32508	
8040	0	32644	
8041	0	32884	
8042	0	32968	
8043	0	32902	
8044	0	32844	
8045	0	32924	
8046	0	33044	
8047	0	33040	
8048	0	33126	
8049	0	33213	
8050	0	33012	
8051	0	32932	
8052	0	32632	
8053	0	32616	
8054	0	32604	
8055	0	32524	
8056	0	32488	
8057	0	32540	
8058	0	32441	
8059	0	32580	
8060	0	32560	
8061	0	32648	
8062	0	32940	
8063	0	33120	
8064	0	32904	
8065	0	32665	
8066	0	32516	
8067	0	32676	
8068	0	33092	
8069	0	33208	
8070	0	33600	
8071	0	33360	
8072	0	32905	
8073	0	32464	
8074	0	32504	
8075	0	32518	
8076	0	32545	
8077	0	32432	
8078	0	32272	
8079	0	32537	
8080	0	32820	
8081	0	32736	
8082	0	32924	
8083	0	33076	
8084	0	32902	
8085	0	32800	
8086	0	33100	
8087	0	32744	
8088	0	32812	
8089	0	33004	
8090	0	32972	
8091	0	32869	
8092	0	33004	
8093	0	32928	
8094	0	32702	
8095	0	32520	
8096	0	32556	
8097	0	32280	
8098	0	32192	
8099	0	32352	
8100	0	32712	
8101	0	32912	
8102	0	32920	
8103	0	33036	
8104	0	33276	
8105	0	33216	
8106	0	32952	
8107	0	32568	
8108	0	32660	
8109	0	33056	
8110	0	33004	
8111	0	33134	
8112	0	33017	
8113	0	32760	
8114	0	32548	
8115	0	32452	
8116	0	32416	
8117	0	32228	
8118	0	32016	
8119	0	32444	
8120	0	32732	
8121	0	32748	
8122	0	32860	
8123	0	33077	
8124	0	33220	
8125	0	33140	
8126	0	33020	
8127	0	32673	
8128	0	32848	
8129	0	32876	
8130	0	32840	
8131	0	32956	
8132	0	33120	
8133	0	32748	
8134	0	32552	
8135	0	32532	
8136	0	32620	
8137	0	32620	
8138	0	32697	
8139	0	32644	
8140	0	32520	
8141	0	32536	
8142	0	32628	
8143	0	32869	
8144	0	33013	
8145	0	32988	
8146	0	33161	
8147	0	33200	
8148	0	32704	
8149	0	32564	
8150	0	32776	
8151	0	33062	
8152	0	32960	
8153	0	32816	
8154	0	32592	
8155	0	32560	
8156	0	32620	
8157	0	32493	
8158	0	32556	
8159	0	32524	
8160	0	32460	
8161	0	32762	
8162	0	32946	
8163	0	33080	
8164	0	32960	
8165	0	32932	
8166	0	32680	
8167	0	32744	
8168	0	32968	
8169	0	33172	
8170	0	33104	
8171	0	32958	
8172	0	32648	
8173	0	32508	
8174	0	32600	
8175	0	32654	
8176	0	32628	
8177	0	32677	
8178	0	32648	
8179	0	32441	
8180	0	32388	
8181	0	32596	
8182	0	32992	
8183	0	33244	
8184	0	33588	
8185	0	32980	
8186	0	32600	
8187	0	32424	
8188	0	32576	
8189	0	32948	
8190	0	33260	
8191	0	33132	
8192	0	32968	
8193	0	32592	
8194	0	32580	
8195	0	32612	
8196	0	32536	
8197	0	32460	
8198	0	32344	
8199	0	32460	
8200	0	32720	
8201	0	32876	
8202	0	32850	
8203	0	32804	
8204	0	32812	
8205	0	33044	
8206	0	32860	
8207	0	32912	
8208	0	33016	
8209	0	32924	
8210	0	32884	
8211	0	32944	
8212	0	32902	
8213	0	32777	
8214	0	32760	
8215	0	32680	
8216	0	32620	
8217	0	32564	
8218	0	32448	
8219	0	32592	
8220	0	32644	
8221	0	32572	
8222	0	32829	
8223	0	32976	
8224	0	33004	
8225	0	33044	
8226	0	33021	
8227	0	32628	
8228	0	32536	
8229	0	32944	
8230	0	33032	
8231	0	32992	
8232	0	32925	
8233	0	32716	
8234	0	32580	
8235	0	32736	
8236	0	32584	
8237	0	32647	
8238	0	32736	
8239	0	32720	
8240	0	32696	
8241	0	32543	
8242	0	32524	
8243	0	32860	
8244	0	33053	
8245	0	33108	
8246	0	32972	
8247	0	32996	
8248	0	32864	
8249	0	33089	
8250	0	32973	
8251	0	32764	
8252	0	32584	
8253	0	32648	
8254	0	32672	
8255	0	32888	
8256	0	32716	
8257	0	32084	
8258	0	31982	
8259	0	32220	
8260	0	32936	
8261	0	33424	
8262	0	33092	
8263	0	32927	
8264	0	32876	
8265	0	32705	
8266	0	32633	
8267	0	32696	
8268	0	32756	
8269	0	32944	
8270	0	33184	
8271	0	33020	
8272	0	32736	
8273	0	32772	
8274	0	32977	
8275	0	32813	
8276	0	32825	
8277	0	32704	
8278	0	32464	
8279	0	32492	
8280	0	32672	
8281	0	32996	
8282	0	32792	
8283	0	32560	
8284	0	32600	
8285	0	32676	
8286	0	32944	
8287	0	32836	
8288	0	32985	
8289	0	32942	
8290	0	32960	
8291	0	32984	
8292	0	32940	
8293	0	32768	
8294	0	32640	
8295	0	32748	
8296	0	32373	
8297	0	32292	
8298	0	32748	
8299	0	32748	
8300	0	32944	
8301	0	32616	
8302	0	32488	
8303	0	32677	
8304	0	32852	
8305	0	32916	
8306	0	32784	
8307	0	33004	
8308	0	33232	
8309	0	33204	
8310	0	32920	
8311	0	32708	
8312	0	32976	
8313	0	32916	
8314	0	32452	
8315	0	32507	
8316	0	32360	
8317	0	32469	
8318	0	32304	
8319	0	32492	
8320	0	32936	
8321	0	33034	
8322	0	33108	
8323	0	32928	
8324	0	32853	
8325	0	32604	
8326	0	32724	
8327	0	32900	
8328	0	33028	
8329	0	32964	
8330	0	32988	
8331	0	32940	
8332	0	32840	
8333	0	32748	
8334	0	32636	
8335	0	32544	
8336	0	32392	
8337	0	32376	
8338	0	32512	
8339	0	32756	
8340	0	33052	
8341	0	33088	
8342	0	32808	
8343	0	32784	
8344	0	32820	
8345	0	32752	
8346	0	32772	
8347	0	32912	
8348	0	32988	
8349	0	32956	
8350	0	32942	
8351	0	32888	
8352	0	32896	
8353	0	32860	
8354	0	32797	
8355	0	32592	
8356	0	32568	
8357	0	32600	
8358	0	32532	
8359	0	32502	
8360	0	32637	
8361	0	32636	
8362	0	32748	
8363	0	33036	
8364	0	33152	
8365	0	33348	
8366	0	33040	
8367	0	32580	
8368	0	32704	
8369	0	32824	
8370	0	32596	
8371	0	32776	
8372	0	32956	
8373	0	32821	
8374	0	32812	
8375	0	32608	
8376	0	32424	
8377	0	32224	
8378	0	32456	
8379	0	32732	
8380	0	32836	
8381	0	33064	
8382	0	32896	
8383	0	33180	
8384	0	32960	
8385	0	32616	
8386	0	32624	
8387	0	32844	
8388	0	33052	
8389	0	32940	
8390	0	32876	
8391	0	33012	
8392	0	32968	
8393	0	32608	
8394	0	32788	
8395	0	32736	
8396	0	32608	
8397	0	32545	
8398	0	32668	
8399	0	32564	
8400	0	32540	
8401	0	32680	
8402	0	32904	
8403	0	32824	
8404	0	32820	
8405	0	33072	
8406	0	33204	
8407	0	33033	
8408	0	32832	
8409	0	32732	
8410	0	32640	
8411	0	32856	
8412	0	32984	
8413	0	32784	
8414	0	32524	
8415	0	32632	
8416	0	32788	
8417	0	32752	
8418	0	32688	
8419	0	32648	
8420	0	32660	
8421	0	32724	
8422	0	32640	
8423	0	32884	
8424	0	32884	
8425	0	32836	
8426	0	32872	
8427	0	32968	
8428	0	32992	
8429	0	32748	
8430	0	32918	
8431	0	33117	
8432	0	32816	
8433	0	32864	
8434	0	32740	
8435	0	32816	
8436	0	32860	
8437	0	32644	
8438	0	32438	
8439	0	32436	
8440	0	32553	
8441	0	32684	
8442	0	32813	
8443	0	33262	
8444	0	32980	
8445	0	32580	
8446	0	32144	
8447	0	32548	
8448	0	32900	
8449	0	33088	
8450	0	32924	
8451	0	33124	
8452	0	33168	
8453	0	32720	
8454	0	32416	
8455	0	32364	
8456	0	32696	
8457	0	32900	
8458	0	33224	
8459	0	33086	
8460	0	32688	
8461	0	32357	
8462	0	32104	
8463	0	32596	
8464	0	32624	
8465	0	32797	
8466	0	32924	
8467	0	33212	
8468	0	33464	
8469	0	32880	
8470	0	32664	
8471	0	32800	
8472	0	32748	
8473	0	32838	
8474	0	32740	
8475	0	32756	
8476	0	32644	
8477	0	32508	
8478	0	32536	
8479	0	32612	
8480	0	32668	
8481	0	32968	
8482	0	33012	
8483	0	32932	
8484	0	32892	
8485	0	32849	
8486	0	32832	
8487	0	33084	
8488	0	32988	
8489	0	32868	
8490	0	32844	
8491	0	32884	
8492	0	32916	
8493	0	32804	
8494	0	32692	
8495	0	32596	
8496	0	32596	
8497	0	32568	
8498	0	32428	
8499	0	32492	
8500	0	32700	
8501	0	32800	
8502	0	32904	
8503	0	32988	
8504	0	32796	
8505	0	32721	
8506	0	32772	
8507	0	32784	
8508	0	32776	
8509	0	32772	
8510	0	33103	
8511	0	33166	
8512	0	32984	
8513	0	32736	
8514	0	32572	
8515	0	32476	
8516	0	32604	
8517	0	32504	
8518	0	32468	
8519	0	32732	
8520	0	32676	
8521	0	32800	
8522	0	33024	
8523	0	33200	
8524	0	33092	
8525	0	32600	
8526	0	32720	
8527	0	33024	
8528	0	33048	
8529	0	32676	
8530	0	32753	
8531	0	32916	
8532	0	33028	
8533	0	33004	
8534	0	33053	
8535	0	32428	
8536	0	32104	
8537	0	32268	
8538	0	32528	
8539	0	32564	
8540	0	32553	
8541	0	32902	
8542	0	32700	
8543	0	32685	
8544	0	33028	
8545	0	33336	
8546	0	32876	
8547	0	33072	
8548	0	32968	
8549	0	32685	
8550	0	32660	
8551	0	32736	
8552	0	33036	
8553	0	33049	
8554	0	32772	
8555	0	32688	
8556	0	32596	
8557	0	32616	
8558	0	32228	
8559	0	32420	
8560	0	32528	
8561	0	32844	
8562	0	33180	
8563	0	33124	
8564	0	32928	
8565	0	32924	
8566	0	32804	
8567	0	32837	
8568	0	33000	
8569	0	32964	
8570	0	32964	
8571	0	33103	
8572	0	32888	
8573	0	32548	
8574	0	32476	
8575	0	32480	
8576	0	32584	
8577	0	32569	
8578	0	32424	
8579	0	32468	
8580	0	32494	
8581	0	32721	
8582	0	33016	
8583	0	33100	
8584	0	33124	
8585	0	32888	
8586	0	32844	
8587	0	32977	
8588	0	33038	
8589	0	32824	
8590	0	33044	
8591	0	33100	
8592	0	32872	
8593	0	32500	
8594	0	32644	
8595	0	32788	
8596	0	32560	
8597	0	32324	
8598	0	32296	
8599	0	32468	
8600	0	32556	
8601	0	32736	
8602	0	32864	
8603	0	33100	
8604	0	33294	
8605	0	33296	
8606	0	32940	
8607	0	32620	
8608	0	32725	
8609	0	32745	
8610	0	32724	
8611	0	32836	
8612	0	33140	
8613	0	33057	
