# OpenSignals Text File Format. Version 1
# {"00:07:80:4D:2E:9E": {"position": 0, "device": "biosignalsplux", "device name": "00:07:80:4D:2E:9E", "device connection": "BTH00:07:80:4D:2E:9E", "sampling rate": 500, "resolution": [8], "firmware version": 774, "comments": "", "keywords": "", "mode": 0, "sync interval": 2, "date": "2020-7-6", "time": "17:52:35.213", "channels": [1], "sensor": ["EMG"], "label": ["CH1"], "column": ["nSeq", "DI", "CH1"], "special": [{}], "digital IO": [0, 1]}}
# EndOfHeader
0	0	124	
1	0	126	
2	0	127	
3	0	131	
4	0	133	
5	0	131	
6	0	124	
7	0	121	
8	0	125	
9	0	128	
10	0	129	
11	0	131	
12	0	129	
13	0	129	
14	0	126	
15	0	125	
16	0	126	
17	0	127	
18	0	127	
19	0	128	
20	0	126	
21	0	124	
22	0	127	
23	0	129	
24	0	125	
25	0	128	
26	0	127	
27	0	128	
28	0	128	
29	0	124	
30	0	129	
31	0	129	
32	0	129	
33	0	128	
34	0	127	
35	0	131	
36	0	129	
37	0	129	
38	0	127	
39	0	126	
40	0	128	
41	0	128	
42	0	130	
43	0	131	
44	0	131	
45	0	131	
46	0	129	
47	0	127	
48	0	129	
49	0	126	
50	0	123	
51	0	123	
52	0	126	
53	0	128	
54	0	128	
55	0	128	
56	0	128	
57	0	126	
58	0	126	
59	0	127	
60	0	126	
61	0	126	
62	0	124	
63	0	124	
64	0	125	
65	0	121	
66	0	122	
67	0	123	
68	0	129	
69	0	128	
70	0	128	
71	0	129	
72	0	132	
73	0	130	
74	0	129	
75	0	130	
76	0	128	
77	0	127	
78	0	127	
79	0	126	
80	0	126	
81	0	130	
82	0	129	
83	0	132	
84	0	133	
85	0	133	
86	0	132	
87	0	131	
88	0	128	
89	0	130	
90	0	128	
91	0	125	
92	0	127	
93	0	126	
94	0	125	
95	0	123	
96	0	123	
97	0	123	
98	0	128	
99	0	129	
100	0	133	
101	0	131	
102	0	128	
103	0	147	
104	0	150	
105	0	146	
106	0	139	
107	0	133	
108	0	126	
109	0	121	
110	0	120	
111	0	122	
112	0	120	
113	0	119	
114	0	122	
115	0	126	
116	0	125	
117	0	124	
118	0	126	
119	0	125	
120	0	124	
121	0	124	
122	0	121	
123	0	122	
124	0	125	
125	0	125	
126	0	125	
127	0	128	
128	0	127	
129	0	130	
130	0	128	
131	0	129	
132	0	126	
133	0	126	
134	0	126	
135	0	125	
136	0	127	
137	0	129	
138	0	109	
139	0	105	
140	0	109	
141	0	116	
142	0	121	
143	0	125	
144	0	133	
145	0	136	
146	0	139	
147	0	136	
148	0	137	
149	0	137	
150	0	136	
151	0	134	
152	0	132	
153	0	128	
154	0	126	
155	0	130	
156	0	131	
157	0	132	
158	0	132	
159	0	151	
160	0	152	
161	0	140	
162	0	130	
163	0	129	
164	0	123	
165	0	120	
166	0	120	
167	0	123	
168	0	125	
169	0	122	
170	0	119	
171	0	120	
172	0	119	
173	0	121	
174	0	121	
175	0	122	
176	0	126	
177	0	126	
178	0	127	
179	0	127	
180	0	128	
181	0	125	
182	0	125	
183	0	127	
184	0	131	
185	0	126	
186	0	125	
187	0	128	
188	0	135	
189	0	135	
190	0	129	
191	0	131	
192	0	128	
193	0	129	
194	0	127	
195	0	126	
196	0	130	
197	0	133	
198	0	127	
199	0	125	
200	0	124	
201	0	125	
202	0	123	
203	0	123	
204	0	131	
205	0	127	
206	0	126	
207	0	125	
208	0	126	
209	0	124	
210	0	127	
211	0	128	
212	0	128	
213	0	127	
214	0	128	
215	0	127	
216	0	124	
217	0	127	
218	0	129	
219	0	131	
220	0	128	
221	0	128	
222	0	128	
223	0	128	
224	0	126	
225	0	127	
226	0	130	
227	0	129	
228	0	129	
229	0	131	
230	0	131	
231	0	125	
232	0	125	
233	0	129	
234	0	129	
235	0	125	
236	0	127	
237	0	126	
238	0	128	
239	0	132	
240	0	128	
241	0	128	
242	0	129	
243	0	130	
244	0	128	
245	0	125	
246	0	127	
247	0	128	
248	0	129	
249	0	127	
250	0	124	
251	0	124	
252	0	129	
253	0	130	
254	0	131	
255	0	132	
256	0	131	
257	0	127	
258	0	129	
259	0	131	
260	0	126	
261	0	124	
262	0	125	
263	0	125	
264	0	123	
265	0	128	
266	0	129	
267	0	125	
268	0	125	
269	0	127	
270	0	128	
271	0	128	
272	0	126	
273	0	124	
274	0	125	
275	0	124	
276	0	126	
277	0	128	
278	0	128	
279	0	127	
280	0	124	
281	0	127	
282	0	127	
283	0	128	
284	0	129	
285	0	127	
286	0	110	
287	0	111	
288	0	119	
289	0	124	
290	0	127	
291	0	131	
292	0	133	
293	0	129	
294	0	130	
295	0	132	
296	0	131	
297	0	132	
298	0	132	
299	0	131	
300	0	134	
301	0	133	
302	0	131	
303	0	132	
304	0	132	
305	0	129	
306	0	128	
307	0	127	
308	0	128	
309	0	128	
310	0	131	
311	0	128	
312	0	129	
313	0	129	
314	0	128	
315	0	128	
316	0	127	
317	0	127	
318	0	127	
319	0	128	
320	0	131	
321	0	130	
322	0	129	
323	0	123	
324	0	123	
325	0	127	
326	0	128	
327	0	128	
328	0	127	
329	0	126	
330	0	121	
331	0	122	
332	0	125	
333	0	126	
334	0	129	
335	0	128	
336	0	132	
337	0	131	
338	0	130	
339	0	126	
340	0	125	
341	0	126	
342	0	128	
343	0	125	
344	0	127	
345	0	127	
346	0	127	
347	0	129	
348	0	129	
349	0	127	
350	0	128	
351	0	132	
352	0	130	
353	0	126	
354	0	126	
355	0	129	
356	0	129	
357	0	127	
358	0	126	
359	0	127	
360	0	128	
361	0	127	
362	0	129	
363	0	127	
364	0	127	
365	0	129	
366	0	125	
367	0	126	
368	0	130	
369	0	133	
370	0	129	
371	0	129	
372	0	126	
373	0	128	
374	0	127	
375	0	125	
376	0	126	
377	0	124	
378	0	128	
379	0	129	
380	0	129	
381	0	128	
382	0	126	
383	0	126	
384	0	128	
385	0	128	
386	0	128	
387	0	127	
388	0	128	
389	0	135	
390	0	131	
391	0	128	
392	0	126	
393	0	126	
394	0	126	
395	0	128	
396	0	126	
397	0	126	
398	0	129	
399	0	127	
400	0	128	
401	0	129	
402	0	126	
403	0	127	
404	0	128	
405	0	126	
406	0	125	
407	0	126	
408	0	127	
409	0	130	
410	0	131	
411	0	127	
412	0	127	
413	0	129	
414	0	126	
415	0	128	
416	0	128	
417	0	123	
418	0	124	
419	0	129	
420	0	131	
421	0	128	
422	0	128	
423	0	129	
424	0	128	
425	0	126	
426	0	128	
427	0	128	
428	0	127	
429	0	128	
430	0	128	
431	0	127	
432	0	130	
433	0	130	
434	0	130	
435	0	128	
436	0	127	
437	0	124	
438	0	128	
439	0	126	
440	0	127	
441	0	128	
442	0	127	
443	0	129	
444	0	127	
445	0	129	
446	0	127	
447	0	126	
448	0	129	
449	0	130	
450	0	129	
451	0	127	
452	0	128	
453	0	125	
454	0	123	
455	0	124	
456	0	123	
457	0	126	
458	0	128	
459	0	130	
460	0	134	
461	0	131	
462	0	127	
463	0	129	
464	0	127	
465	0	126	
466	0	126	
467	0	130	
468	0	128	
469	0	129	
470	0	126	
471	0	122	
472	0	122	
473	0	126	
474	0	129	
475	0	129	
476	0	132	
477	0	131	
478	0	129	
479	0	127	
480	0	126	
481	0	129	
482	0	128	
483	0	125	
484	0	129	
485	0	128	
486	0	124	
487	0	123	
488	0	128	
489	0	127	
490	0	129	
491	0	127	
492	0	127	
493	0	127	
494	0	129	
495	0	129	
496	0	130	
497	0	129	
498	0	128	
499	0	129	
500	0	130	
501	0	127	
502	0	130	
503	0	129	
504	0	129	
505	0	127	
506	0	125	
507	0	124	
508	0	125	
509	0	124	
510	0	124	
511	0	124	
512	0	125	
513	0	122	
514	0	124	
515	0	130	
516	0	133	
517	0	134	
518	0	132	
519	0	135	
520	0	134	
521	0	127	
522	0	125	
523	0	125	
524	0	125	
525	0	126	
526	0	126	
527	0	126	
528	0	128	
529	0	127	
530	0	128	
531	0	130	
532	0	128	
533	0	126	
534	0	128	
535	0	126	
536	0	126	
537	0	128	
538	0	127	
539	0	126	
540	0	130	
541	0	129	
542	0	129	
543	0	130	
544	0	129	
545	0	129	
546	0	129	
547	0	124	
548	0	125	
549	0	125	
550	0	124	
551	0	127	
552	0	130	
553	0	128	
554	0	130	
555	0	129	
556	0	126	
557	0	128	
558	0	126	
559	0	124	
560	0	124	
561	0	124	
562	0	124	
563	0	129	
564	0	129	
565	0	131	
566	0	131	
567	0	131	
568	0	125	
569	0	127	
570	0	127	
571	0	126	
572	0	126	
573	0	126	
574	0	129	
575	0	129	
576	0	124	
577	0	126	
578	0	131	
579	0	134	
580	0	127	
581	0	129	
582	0	127	
583	0	128	
584	0	129	
585	0	129	
586	0	127	
587	0	127	
588	0	128	
589	0	128	
590	0	126	
591	0	123	
592	0	128	
593	0	128	
594	0	127	
595	0	128	
596	0	127	
597	0	128	
598	0	126	
599	0	129	
600	0	130	
601	0	129	
602	0	124	
603	0	129	
604	0	129	
605	0	126	
606	0	129	
607	0	129	
608	0	128	
609	0	128	
610	0	127	
611	0	128	
612	0	128	
613	0	129	
614	0	129	
615	0	125	
616	0	128	
617	0	129	
618	0	127	
619	0	127	
620	0	125	
621	0	127	
622	0	125	
623	0	127	
624	0	130	
625	0	129	
626	0	126	
627	0	128	
628	0	127	
629	0	129	
630	0	128	
631	0	132	
632	0	133	
633	0	129	
634	0	127	
635	0	126	
636	0	127	
637	0	131	
638	0	130	
639	0	131	
640	0	127	
641	0	123	
642	0	123	
643	0	123	
644	0	124	
645	0	128	
646	0	127	
647	0	126	
648	0	125	
649	0	125	
650	0	129	
651	0	128	
652	0	130	
653	0	131	
654	0	130	
655	0	128	
656	0	127	
657	0	126	
658	0	123	
659	0	126	
660	0	127	
661	0	125	
662	0	121	
663	0	121	
664	0	125	
665	0	128	
666	0	129	
667	0	134	
668	0	134	
669	0	132	
670	0	128	
671	0	129	
672	0	126	
673	0	125	
674	0	126	
675	0	127	
676	0	127	
677	0	129	
678	0	132	
679	0	133	
680	0	128	
681	0	127	
682	0	127	
683	0	131	
684	0	128	
685	0	125	
686	0	127	
687	0	129	
688	0	132	
689	0	125	
690	0	125	
691	0	120	
692	0	130	
693	0	130	
694	0	130	
695	0	130	
696	0	128	
697	0	125	
698	0	128	
699	0	128	
700	0	129	
701	0	128	
702	0	125	
703	0	124	
704	0	123	
705	0	127	
706	0	128	
707	0	118	
708	0	120	
709	0	123	
710	0	125	
711	0	125	
712	0	125	
713	0	127	
714	0	128	
715	0	133	
716	0	131	
717	0	135	
718	0	134	
719	0	130	
720	0	127	
721	0	127	
722	0	127	
723	0	127	
724	0	127	
725	0	127	
726	0	127	
727	0	128	
728	0	126	
729	0	127	
730	0	130	
731	0	129	
732	0	129	
733	0	127	
734	0	125	
735	0	130	
736	0	129	
737	0	128	
738	0	128	
739	0	128	
740	0	127	
741	0	127	
742	0	127	
743	0	126	
744	0	129	
745	0	127	
746	0	128	
747	0	130	
748	0	130	
749	0	130	
750	0	127	
751	0	130	
752	0	131	
753	0	126	
754	0	128	
755	0	127	
756	0	128	
757	0	129	
758	0	126	
759	0	128	
760	0	127	
761	0	126	
762	0	128	
763	0	127	
764	0	123	
765	0	126	
766	0	127	
767	0	126	
768	0	124	
769	0	125	
770	0	129	
771	0	133	
772	0	131	
773	0	132	
774	0	134	
775	0	129	
776	0	127	
777	0	126	
778	0	128	
779	0	125	
780	0	125	
781	0	127	
782	0	127	
783	0	125	
784	0	128	
785	0	127	
786	0	123	
787	0	124	
788	0	126	
789	0	132	
790	0	133	
791	0	130	
792	0	130	
793	0	128	
794	0	128	
795	0	129	
796	0	126	
797	0	124	
798	0	122	
799	0	120	
800	0	125	
801	0	125	
802	0	132	
803	0	136	
804	0	137	
805	0	137	
806	0	134	
807	0	129	
808	0	126	
809	0	127	
810	0	126	
811	0	129	
812	0	121	
813	0	115	
814	0	115	
815	0	124	
816	0	129	
817	0	131	
818	0	131	
819	0	132	
820	0	128	
821	0	124	
822	0	123	
823	0	125	
824	0	130	
825	0	134	
826	0	132	
827	0	129	
828	0	127	
829	0	126	
830	0	127	
831	0	129	
832	0	129	
833	0	128	
834	0	129	
835	0	129	
836	0	126	
837	0	124	
838	0	125	
839	0	129	
840	0	130	
841	0	129	
842	0	124	
843	0	123	
844	0	124	
845	0	127	
846	0	129	
847	0	126	
848	0	125	
849	0	126	
850	0	130	
851	0	128	
852	0	124	
853	0	123	
854	0	129	
855	0	127	
856	0	128	
857	0	129	
858	0	133	
859	0	129	
860	0	129	
861	0	127	
862	0	128	
863	0	130	
864	0	127	
865	0	126	
866	0	130	
867	0	128	
868	0	129	
869	0	128	
870	0	127	
871	0	129	
872	0	129	
873	0	131	
874	0	127	
875	0	125	
876	0	127	
877	0	125	
878	0	125	
879	0	128	
880	0	127	
881	0	130	
882	0	128	
883	0	132	
884	0	129	
885	0	129	
886	0	127	
887	0	128	
888	0	130	
889	0	129	
890	0	127	
891	0	130	
892	0	131	
893	0	127	
894	0	125	
895	0	123	
896	0	122	
897	0	124	
898	0	133	
899	0	132	
900	0	129	
901	0	125	
902	0	122	
903	0	123	
904	0	128	
905	0	135	
906	0	132	
907	0	127	
908	0	126	
909	0	128	
910	0	125	
911	0	120	
912	0	119	
913	0	122	
914	0	127	
915	0	129	
916	0	129	
917	0	130	
918	0	130	
919	0	128	
920	0	133	
921	0	133	
922	0	130	
923	0	127	
924	0	128	
925	0	130	
926	0	127	
927	0	129	
928	0	130	
929	0	127	
930	0	130	
931	0	129	
932	0	127	
933	0	125	
934	0	127	
935	0	130	
936	0	118	
937	0	113	
938	0	119	
939	0	122	
940	0	123	
941	0	131	
942	0	132	
943	0	131	
944	0	131	
945	0	134	
946	0	134	
947	0	134	
948	0	132	
949	0	128	
950	0	125	
951	0	124	
952	0	123	
953	0	123	
954	0	125	
955	0	132	
956	0	133	
957	0	137	
958	0	133	
959	0	129	
960	0	125	
961	0	125	
962	0	124	
963	0	127	
964	0	127	
965	0	128	
966	0	125	
967	0	130	
968	0	129	
969	0	129	
970	0	133	
971	0	140	
972	0	136	
973	0	132	
974	0	130	
975	0	129	
976	0	128	
977	0	122	
978	0	122	
979	0	121	
980	0	125	
981	0	126	
982	0	130	
983	0	131	
984	0	128	
985	0	130	
986	0	130	
987	0	127	
988	0	129	
989	0	127	
990	0	124	
991	0	119	
992	0	122	
993	0	124	
994	0	123	
995	0	124	
996	0	126	
997	0	125	
998	0	127	
999	0	126	
1000	0	131	
1001	0	134	
1002	0	134	
1003	0	129	
1004	0	131	
1005	0	124	
1006	0	124	
1007	0	124	
1008	0	127	
1009	0	126	
1010	0	125	
1011	0	127	
1012	0	125	
1013	0	127	
1014	0	127	
1015	0	131	
1016	0	131	
1017	0	132	
1018	0	127	
1019	0	127	
1020	0	126	
1021	0	126	
1022	0	125	
1023	0	123	
1024	0	121	
1025	0	126	
1026	0	129	
1027	0	127	
1028	0	130	
1029	0	132	
1030	0	129	
1031	0	127	
1032	0	126	
1033	0	130	
1034	0	130	
1035	0	126	
1036	0	122	
1037	0	127	
1038	0	124	
1039	0	117	
1040	0	118	
1041	0	121	
1042	0	132	
1043	0	131	
1044	0	128	
1045	0	129	
1046	0	128	
1047	0	126	
1048	0	132	
1049	0	130	
1050	0	131	
1051	0	132	
1052	0	131	
1053	0	125	
1054	0	119	
1055	0	117	
1056	0	127	
1057	0	130	
1058	0	130	
1059	0	129	
1060	0	127	
1061	0	128	
1062	0	125	
1063	0	124	
1064	0	129	
1065	0	130	
1066	0	129	
1067	0	126	
1068	0	126	
1069	0	129	
1070	0	134	
1071	0	130	
1072	0	128	
1073	0	133	
1074	0	136	
1075	0	127	
1076	0	123	
1077	0	122	
1078	0	125	
1079	0	126	
1080	0	125	
1081	0	128	
1082	0	126	
1083	0	129	
1084	0	131	
1085	0	129	
1086	0	130	
1087	0	132	
1088	0	128	
1089	0	126	
1090	0	128	
1091	0	128	
1092	0	125	
1093	0	127	
1094	0	126	
1095	0	127	
1096	0	130	
1097	0	130	
1098	0	133	
1099	0	129	
1100	0	131	
1101	0	130	
1102	0	127	
1103	0	124	
1104	0	127	
1105	0	128	
1106	0	129	
1107	0	130	
1108	0	132	
1109	0	131	
1110	0	120	
1111	0	119	
1112	0	121	
1113	0	122	
1114	0	123	
1115	0	122	
1116	0	128	
1117	0	126	
1118	0	127	
1119	0	134	
1120	0	131	
1121	0	132	
1122	0	131	
1123	0	130	
1124	0	130	
1125	0	129	
1126	0	127	
1127	0	125	
1128	0	126	
1129	0	126	
1130	0	125	
1131	0	129	
1132	0	129	
1133	0	126	
1134	0	127	
1135	0	128	
1136	0	129	
1137	0	128	
1138	0	124	
1139	0	126	
1140	0	126	
1141	0	128	
1142	0	127	
1143	0	126	
1144	0	126	
1145	0	131	
1146	0	136	
1147	0	134	
1148	0	130	
1149	0	132	
1150	0	131	
1151	0	127	
1152	0	119	
1153	0	124	
1154	0	131	
1155	0	127	
1156	0	129	
1157	0	128	
1158	0	126	
1159	0	126	
1160	0	125	
1161	0	129	
1162	0	125	
1163	0	127	
1164	0	127	
1165	0	124	
1166	0	126	
1167	0	129	
1168	0	131	
1169	0	128	
1170	0	128	
1171	0	130	
1172	0	131	
1173	0	132	
1174	0	128	
1175	0	123	
1176	0	124	
1177	0	127	
1178	0	131	
1179	0	128	
1180	0	126	
1181	0	127	
1182	0	130	
1183	0	130	
1184	0	129	
1185	0	127	
1186	0	125	
1187	0	130	
1188	0	133	
1189	0	128	
1190	0	126	
1191	0	125	
1192	0	128	
1193	0	127	
1194	0	124	
1195	0	127	
1196	0	126	
1197	0	128	
1198	0	128	
1199	0	128	
1200	0	128	
1201	0	125	
1202	0	125	
1203	0	121	
1204	0	125	
1205	0	130	
1206	0	135	
1207	0	132	
1208	0	129	
1209	0	130	
1210	0	129	
1211	0	131	
1212	0	128	
1213	0	128	
1214	0	126	
1215	0	127	
1216	0	128	
1217	0	129	
1218	0	125	
1219	0	123	
1220	0	124	
1221	0	126	
1222	0	129	
1223	0	128	
1224	0	129	
1225	0	126	
1226	0	126	
1227	0	126	
1228	0	124	
1229	0	127	
1230	0	130	
1231	0	135	
1232	0	128	
1233	0	122	
1234	0	124	
1235	0	125	
1236	0	126	
1237	0	127	
1238	0	128	
1239	0	128	
1240	0	129	
1241	0	131	
1242	0	132	
1243	0	132	
1244	0	131	
1245	0	129	
1246	0	124	
1247	0	125	
1248	0	124	
1249	0	124	
1250	0	126	
1251	0	127	
1252	0	128	
1253	0	126	
1254	0	125	
1255	0	124	
1256	0	127	
1257	0	128	
1258	0	130	
1259	0	128	
1260	0	127	
1261	0	126	
1262	0	126	
1263	0	129	
1264	0	130	
1265	0	132	
1266	0	129	
1267	0	128	
1268	0	129	
1269	0	130	
1270	0	130	
1271	0	127	
1272	0	127	
1273	0	128	
1274	0	127	
1275	0	126	
1276	0	123	
1277	0	125	
1278	0	126	
1279	0	129	
1280	0	129	
1281	0	130	
1282	0	131	
1283	0	129	
1284	0	126	
1285	0	127	
1286	0	129	
1287	0	130	
1288	0	129	
1289	0	127	
1290	0	126	
1291	0	129	
1292	0	125	
1293	0	119	
1294	0	122	
1295	0	127	
1296	0	124	
1297	0	128	
1298	0	131	
1299	0	130	
1300	0	131	
1301	0	130	
1302	0	127	
1303	0	124	
1304	0	128	
1305	0	129	
1306	0	132	
1307	0	130	
1308	0	127	
1309	0	126	
1310	0	126	
1311	0	125	
1312	0	129	
1313	0	130	
1314	0	129	
1315	0	128	
1316	0	127	
1317	0	125	
1318	0	127	
1319	0	128	
1320	0	129	
1321	0	126	
1322	0	126	
1323	0	123	
1324	0	125	
1325	0	123	
1326	0	125	
1327	0	130	
1328	0	130	
1329	0	130	
1330	0	132	
1331	0	134	
1332	0	133	
1333	0	125	
1334	0	124	
1335	0	123	
1336	0	125	
1337	0	127	
1338	0	125	
1339	0	125	
1340	0	128	
1341	0	127	
1342	0	130	
1343	0	128	
1344	0	128	
1345	0	132	
1346	0	130	
1347	0	126	
1348	0	124	
1349	0	128	
1350	0	129	
1351	0	125	
1352	0	126	
1353	0	126	
1354	0	124	
1355	0	128	
1356	0	129	
1357	0	129	
1358	0	127	
1359	0	129	
1360	0	131	
1361	0	128	
1362	0	128	
1363	0	131	
1364	0	129	
1365	0	126	
1366	0	127	
1367	0	127	
1368	0	130	
1369	0	129	
1370	0	129	
1371	0	130	
1372	0	126	
1373	0	129	
1374	0	130	
1375	0	128	
1376	0	125	
1377	0	122	
1378	0	123	
1379	0	126	
1380	0	128	
1381	0	129	
1382	0	126	
1383	0	131	
1384	0	131	
1385	0	128	
1386	0	128	
1387	0	124	
1388	0	125	
1389	0	129	
1390	0	131	
1391	0	129	
1392	0	130	
1393	0	128	
1394	0	124	
1395	0	121	
1396	0	129	
1397	0	133	
1398	0	130	
1399	0	120	
1400	0	119	
1401	0	124	
1402	0	129	
1403	0	127	
1404	0	128	
1405	0	133	
1406	0	130	
1407	0	133	
1408	0	130	
1409	0	132	
1410	0	128	
1411	0	131	
1412	0	122	
1413	0	118	
1414	0	123	
1415	0	126	
1416	0	132	
1417	0	137	
1418	0	132	
1419	0	132	
1420	0	128	
1421	0	126	
1422	0	129	
1423	0	126	
1424	0	127	
1425	0	127	
1426	0	131	
1427	0	128	
1428	0	122	
1429	0	116	
1430	0	117	
1431	0	127	
1432	0	130	
1433	0	122	
1434	0	126	
1435	0	125	
1436	0	129	
1437	0	130	
1438	0	129	
1439	0	131	
1440	0	126	
1441	0	123	
1442	0	121	
1443	0	130	
1444	0	130	
1445	0	133	
1446	0	129	
1447	0	130	
1448	0	129	
1449	0	126	
1450	0	128	
1451	0	128	
1452	0	126	
1453	0	131	
1454	0	136	
1455	0	130	
1456	0	132	
1457	0	131	
1458	0	127	
1459	0	125	
1460	0	126	
1461	0	121	
1462	0	125	
1463	0	123	
1464	0	129	
1465	0	130	
1466	0	129	
1467	0	124	
1468	0	125	
1469	0	132	
1470	0	131	
1471	0	130	
1472	0	128	
1473	0	124	
1474	0	127	
1475	0	127	
1476	0	123	
1477	0	123	
1478	0	128	
1479	0	130	
1480	0	127	
1481	0	123	
1482	0	126	
1483	0	127	
1484	0	126	
1485	0	127	
1486	0	128	
1487	0	129	
1488	0	129	
1489	0	131	
1490	0	128	
1491	0	129	
1492	0	127	
1493	0	123	
1494	0	127	
1495	0	127	
1496	0	126	
1497	0	126	
1498	0	130	
1499	0	130	
1500	0	131	
1501	0	129	
1502	0	128	
1503	0	129	
1504	0	127	
1505	0	124	
1506	0	124	
1507	0	129	
1508	0	128	
1509	0	130	
1510	0	126	
1511	0	125	
1512	0	126	
1513	0	131	
1514	0	126	
1515	0	123	
1516	0	126	
1517	0	130	
1518	0	131	
1519	0	130	
1520	0	130	
1521	0	127	
1522	0	129	
1523	0	126	
1524	0	125	
1525	0	124	
1526	0	124	
1527	0	124	
1528	0	124	
1529	0	126	
1530	0	125	
1531	0	127	
1532	0	128	
1533	0	127	
1534	0	127	
1535	0	131	
1536	0	138	
1537	0	136	
1538	0	129	
1539	0	123	
1540	0	125	
1541	0	129	
1542	0	130	
1543	0	127	
1544	0	126	
1545	0	125	
1546	0	127	
1547	0	128	
1548	0	129	
1549	0	127	
1550	0	131	
1551	0	131	
1552	0	130	
1553	0	132	
1554	0	126	
1555	0	124	
1556	0	124	
1557	0	128	
1558	0	130	
1559	0	126	
1560	0	130	
1561	0	128	
1562	0	124	
1563	0	126	
1564	0	131	
1565	0	131	
1566	0	129	
1567	0	128	
1568	0	127	
1569	0	123	
1570	0	123	
1571	0	127	
1572	0	128	
1573	0	125	
1574	0	125	
1575	0	126	
1576	0	131	
1577	0	130	
1578	0	132	
1579	0	129	
1580	0	132	
1581	0	130	
1582	0	124	
1583	0	122	
1584	0	125	
1585	0	127	
1586	0	132	
1587	0	127	
1588	0	125	
1589	0	128	
1590	0	128	
1591	0	127	
1592	0	130	
1593	0	131	
1594	0	127	
1595	0	123	
1596	0	125	
1597	0	123	
1598	0	126	
1599	0	131	
1600	0	132	
1601	0	132	
1602	0	128	
1603	0	125	
1604	0	128	
1605	0	124	
1606	0	126	
1607	0	121	
1608	0	125	
1609	0	127	
1610	0	129	
1611	0	130	
1612	0	128	
1613	0	128	
1614	0	128	
1615	0	127	
1616	0	128	
1617	0	129	
1618	0	126	
1619	0	124	
1620	0	127	
1621	0	128	
1622	0	127	
1623	0	125	
1624	0	125	
1625	0	124	
1626	0	129	
1627	0	129	
1628	0	132	
1629	0	132	
1630	0	130	
1631	0	129	
1632	0	131	
1633	0	128	
1634	0	125	
1635	0	127	
1636	0	131	
1637	0	132	
1638	0	127	
1639	0	128	
1640	0	129	
1641	0	130	
1642	0	131	
1643	0	132	
1644	0	126	
1645	0	123	
1646	0	122	
1647	0	126	
1648	0	123	
1649	0	128	
1650	0	128	
1651	0	124	
1652	0	129	
1653	0	129	
1654	0	128	
1655	0	129	
1656	0	125	
1657	0	125	
1658	0	133	
1659	0	130	
1660	0	128	
1661	0	130	
1662	0	131	
1663	0	127	
1664	0	130	
1665	0	132	
1666	0	129	
1667	0	128	
1668	0	125	
1669	0	124	
1670	0	121	
1671	0	128	
1672	0	127	
1673	0	127	
1674	0	125	
1675	0	124	
1676	0	124	
1677	0	129	
1678	0	127	
1679	0	126	
1680	0	123	
1681	0	126	
1682	0	128	
1683	0	128	
1684	0	126	
1685	0	128	
1686	0	123	
1687	0	127	
1688	0	129	
1689	0	129	
1690	0	128	
1691	0	128	
1692	0	127	
1693	0	125	
1694	0	129	
1695	0	129	
1696	0	128	
1697	0	130	
1698	0	133	
1699	0	130	
1700	0	126	
1701	0	127	
1702	0	126	
1703	0	127	
1704	0	127	
1705	0	128	
1706	0	128	
1707	0	132	
1708	0	133	
1709	0	133	
1710	0	132	
1711	0	129	
1712	0	128	
1713	0	126	
1714	0	127	
1715	0	129	
1716	0	136	
1717	0	136	
1718	0	130	
1719	0	127	
1720	0	127	
1721	0	128	
1722	0	127	
1723	0	122	
1724	0	123	
1725	0	118	
1726	0	122	
1727	0	128	
1728	0	124	
1729	0	121	
1730	0	126	
1731	0	127	
1732	0	126	
1733	0	128	
1734	0	127	
1735	0	125	
1736	0	125	
1737	0	130	
1738	0	130	
1739	0	127	
1740	0	124	
1741	0	126	
1742	0	123	
1743	0	123	
1744	0	124	
1745	0	125	
1746	0	128	
1747	0	131	
1748	0	129	
1749	0	129	
1750	0	133	
1751	0	132	
1752	0	132	
1753	0	132	
1754	0	129	
1755	0	124	
1756	0	124	
1757	0	127	
1758	0	126	
1759	0	126	
1760	0	127	
1761	0	131	
1762	0	127	
1763	0	125	
1764	0	125	
1765	0	126	
1766	0	127	
1767	0	127	
1768	0	130	
1769	0	135	
1770	0	133	
1771	0	133	
1772	0	130	
1773	0	128	
1774	0	130	
1775	0	130	
1776	0	130	
1777	0	123	
1778	0	123	
1779	0	124	
1780	0	121	
1781	0	125	
1782	0	130	
1783	0	126	
1784	0	126	
1785	0	127	
1786	0	128	
1787	0	131	
1788	0	136	
1789	0	135	
1790	0	131	
1791	0	129	
1792	0	125	
1793	0	130	
1794	0	132	
1795	0	130	
1796	0	127	
1797	0	127	
1798	0	125	
1799	0	125	
1800	0	125	
1801	0	126	
1802	0	126	
1803	0	122	
1804	0	123	
1805	0	127	
1806	0	129	
1807	0	127	
1808	0	128	
1809	0	127	
1810	0	123	
1811	0	125	
1812	0	128	
1813	0	130	
1814	0	129	
1815	0	127	
1816	0	128	
1817	0	127	
1818	0	123	
1819	0	123	
1820	0	131	
1821	0	130	
1822	0	128	
1823	0	130	
1824	0	124	
1825	0	125	
1826	0	125	
1827	0	127	
1828	0	129	
1829	0	133	
1830	0	131	
1831	0	129	
1832	0	126	
1833	0	126	
1834	0	126	
1835	0	126	
1836	0	128	
1837	0	128	
1838	0	128	
1839	0	129	
1840	0	125	
1841	0	128	
1842	0	130	
1843	0	126	
1844	0	128	
1845	0	129	
1846	0	126	
1847	0	129	
1848	0	129	
1849	0	128	
1850	0	125	
1851	0	125	
1852	0	128	
1853	0	126	
1854	0	127	
1855	0	130	
1856	0	128	
1857	0	127	
1858	0	127	
1859	0	128	
1860	0	130	
1861	0	127	
1862	0	124	
1863	0	127	
1864	0	129	
1865	0	128	
1866	0	128	
1867	0	133	
1868	0	125	
1869	0	125	
1870	0	127	
1871	0	128	
1872	0	128	
1873	0	128	
1874	0	128	
1875	0	126	
1876	0	128	
1877	0	128	
1878	0	132	
1879	0	130	
1880	0	128	
1881	0	126	
1882	0	125	
1883	0	122	
1884	0	130	
1885	0	133	
1886	0	133	
1887	0	128	
1888	0	124	
1889	0	124	
1890	0	124	
1891	0	126	
1892	0	123	
1893	0	123	
1894	0	128	
1895	0	130	
1896	0	124	
1897	0	118	
1898	0	120	
1899	0	127	
1900	0	129	
1901	0	128	
1902	0	131	
1903	0	128	
1904	0	132	
1905	0	135	
1906	0	131	
1907	0	130	
1908	0	132	
1909	0	130	
1910	0	128	
1911	0	127	
1912	0	125	
1913	0	123	
1914	0	125	
1915	0	126	
1916	0	131	
1917	0	128	
1918	0	127	
1919	0	125	
1920	0	127	
1921	0	129	
1922	0	129	
1923	0	125	
1924	0	124	
1925	0	127	
1926	0	127	
1927	0	131	
1928	0	135	
1929	0	130	
1930	0	127	
1931	0	122	
1932	0	123	
1933	0	124	
1934	0	128	
1935	0	125	
1936	0	127	
1937	0	123	
1938	0	123	
1939	0	127	
1940	0	134	
1941	0	130	
1942	0	128	
1943	0	133	
1944	0	129	
1945	0	129	
1946	0	131	
1947	0	129	
1948	0	131	
1949	0	128	
1950	0	130	
1951	0	129	
1952	0	128	
1953	0	121	
1954	0	121	
1955	0	125	
1956	0	125	
1957	0	131	
1958	0	135	
1959	0	131	
1960	0	126	
1961	0	123	
1962	0	124	
1963	0	128	
1964	0	134	
1965	0	132	
1966	0	129	
1967	0	128	
1968	0	126	
1969	0	131	
1970	0	132	
1971	0	130	
1972	0	131	
1973	0	129	
1974	0	128	
1975	0	129	
1976	0	124	
1977	0	124	
1978	0	127	
1979	0	123	
1980	0	124	
1981	0	125	
1982	0	124	
1983	0	123	
1984	0	122	
1985	0	121	
1986	0	125	
1987	0	129	
1988	0	131	
1989	0	129	
1990	0	125	
1991	0	129	
1992	0	128	
1993	0	126	
1994	0	126	
1995	0	128	
1996	0	129	
1997	0	128	
1998	0	130	
1999	0	126	
2000	0	128	
2001	0	125	
2002	0	124	
2003	0	127	
2004	0	130	
2005	0	129	
2006	0	130	
2007	0	130	
2008	0	126	
2009	0	123	
2010	0	125	
2011	0	124	
2012	0	126	
2013	0	126	
2014	0	125	
2015	0	125	
2016	0	125	
2017	0	126	
2018	0	128	
2019	0	129	
2020	0	131	
2021	0	132	
2022	0	134	
2023	0	134	
2024	0	128	
2025	0	131	
2026	0	129	
2027	0	124	
2028	0	124	
2029	0	126	
2030	0	129	
2031	0	135	
2032	0	139	
2033	0	134	
2034	0	125	
2035	0	125	
2036	0	119	
2037	0	118	
2038	0	122	
2039	0	123	
2040	0	127	
2041	0	130	
2042	0	130	
2043	0	134	
2044	0	134	
2045	0	131	
2046	0	129	
2047	0	124	
2048	0	129	
2049	0	124	
2050	0	126	
2051	0	126	
2052	0	127	
2053	0	126	
2054	0	128	
2055	0	132	
2056	0	130	
2057	0	129	
2058	0	131	
2059	0	128	
2060	0	126	
2061	0	124	
2062	0	125	
2063	0	129	
2064	0	129	
2065	0	128	
2066	0	130	
2067	0	133	
2068	0	131	
2069	0	125	
2070	0	123	
2071	0	123	
2072	0	124	
2073	0	129	
2074	0	126	
2075	0	124	
2076	0	125	
2077	0	125	
2078	0	124	
2079	0	124	
2080	0	128	
2081	0	130	
2082	0	132	
2083	0	128	
2084	0	128	
2085	0	131	
2086	0	130	
2087	0	132	
2088	0	126	
2089	0	127	
2090	0	127	
2091	0	129	
2092	0	127	
2093	0	128	
2094	0	130	
2095	0	132	
2096	0	125	
2097	0	126	
2098	0	128	
2099	0	126	
2100	0	125	
2101	0	123	
2102	0	125	
2103	0	130	
2104	0	129	
2105	0	131	
2106	0	131	
2107	0	129	
2108	0	127	
2109	0	125	
2110	0	125	
2111	0	125	
2112	0	128	
2113	0	134	
2114	0	133	
2115	0	136	
2116	0	136	
2117	0	131	
2118	0	126	
2119	0	125	
2120	0	127	
2121	0	122	
2122	0	123	
2123	0	125	
2124	0	121	
2125	0	121	
2126	0	123	
2127	0	127	
2128	0	126	
2129	0	128	
2130	0	130	
2131	0	134	
2132	0	135	
2133	0	131	
2134	0	132	
2135	0	126	
2136	0	122	
2137	0	124	
2138	0	127	
2139	0	134	
2140	0	131	
2141	0	124	
2142	0	125	
2143	0	127	
2144	0	126	
2145	0	127	
2146	0	124	
2147	0	127	
2148	0	129	
2149	0	128	
2150	0	129	
2151	0	132	
2152	0	130	
2153	0	127	
2154	0	125	
2155	0	122	
2156	0	127	
2157	0	127	
2158	0	130	
2159	0	134	
2160	0	131	
2161	0	131	
2162	0	129	
2163	0	127	
2164	0	128	
2165	0	125	
2166	0	126	
2167	0	123	
2168	0	122	
2169	0	126	
2170	0	124	
2171	0	127	
2172	0	128	
2173	0	128	
2174	0	123	
2175	0	127	
2176	0	128	
2177	0	129	
2178	0	126	
2179	0	129	
2180	0	132	
2181	0	135	
2182	0	130	
2183	0	127	
2184	0	124	
2185	0	125	
2186	0	126	
2187	0	129	
2188	0	130	
2189	0	131	
2190	0	130	
2191	0	130	
2192	0	128	
2193	0	127	
2194	0	129	
2195	0	126	
2196	0	125	
2197	0	126	
2198	0	127	
2199	0	126	
2200	0	125	
2201	0	125	
2202	0	128	
2203	0	129	
2204	0	129	
2205	0	124	
2206	0	127	
2207	0	128	
2208	0	127	
2209	0	124	
2210	0	125	
2211	0	127	
2212	0	128	
2213	0	131	
2214	0	130	
2215	0	131	
2216	0	125	
2217	0	126	
2218	0	122	
2219	0	127	
2220	0	128	
2221	0	127	
2222	0	127	
2223	0	127	
2224	0	129	
2225	0	129	
2226	0	126	
2227	0	126	
2228	0	134	
2229	0	143	
2230	0	136	
2231	0	131	
2232	0	133	
2233	0	130	
2234	0	125	
2235	0	123	
2236	0	124	
2237	0	127	
2238	0	130	
2239	0	130	
2240	0	124	
2241	0	119	
2242	0	122	
2243	0	128	
2244	0	130	
2245	0	127	
2246	0	125	
2247	0	125	
2248	0	119	
2249	0	121	
2250	0	125	
2251	0	124	
2252	0	144	
2253	0	157	
2254	0	152	
2255	0	146	
2256	0	137	
2257	0	130	
2258	0	121	
2259	0	115	
2260	0	114	
2261	0	119	
2262	0	119	
2263	0	120	
2264	0	120	
2265	0	120	
2266	0	123	
2267	0	125	
2268	0	131	
2269	0	128	
2270	0	125	
2271	0	123	
2272	0	130	
2273	0	126	
2274	0	126	
2275	0	125	
2276	0	128	
2277	0	133	
2278	0	131	
2279	0	129	
2280	0	126	
2281	0	126	
2282	0	127	
2283	0	131	
2284	0	132	
2285	0	130	
2286	0	123	
2287	0	125	
2288	0	125	
2289	0	131	
2290	0	132	
2291	0	130	
2292	0	123	
2293	0	120	
2294	0	120	
2295	0	122	
2296	0	123	
2297	0	125	
2298	0	126	
2299	0	130	
2300	0	127	
2301	0	126	
2302	0	132	
2303	0	131	
2304	0	131	
2305	0	130	
2306	0	129	
2307	0	129	
2308	0	132	
2309	0	129	
2310	0	122	
2311	0	122	
2312	0	124	
2313	0	128	
2314	0	129	
2315	0	129	
2316	0	130	
2317	0	131	
2318	0	133	
2319	0	130	
2320	0	131	
2321	0	132	
2322	0	128	
2323	0	128	
2324	0	125	
2325	0	123	
2326	0	125	
2327	0	125	
2328	0	126	
2329	0	122	
2330	0	124	
2331	0	123	
2332	0	124	
2333	0	126	
2334	0	129	
2335	0	127	
2336	0	127	
2337	0	128	
2338	0	124	
2339	0	128	
2340	0	132	
2341	0	126	
2342	0	126	
2343	0	128	
2344	0	127	
2345	0	132	
2346	0	128	
2347	0	123	
2348	0	126	
2349	0	130	
2350	0	133	
2351	0	131	
2352	0	129	
2353	0	125	
2354	0	124	
2355	0	129	
2356	0	129	
2357	0	131	
2358	0	134	
2359	0	129	
2360	0	128	
2361	0	127	
2362	0	126	
2363	0	126	
2364	0	130	
2365	0	133	
2366	0	135	
2367	0	134	
2368	0	133	
2369	0	126	
2370	0	122	
2371	0	118	
2372	0	122	
2373	0	126	
2374	0	125	
2375	0	125	
2376	0	128	
2377	0	124	
2378	0	126	
2379	0	130	
2380	0	128	
2381	0	126	
2382	0	127	
2383	0	126	
2384	0	124	
2385	0	126	
2386	0	121	
2387	0	123	
2388	0	129	
2389	0	133	
2390	0	134	
2391	0	132	
2392	0	131	
2393	0	130	
2394	0	128	
2395	0	132	
2396	0	132	
2397	0	128	
2398	0	127	
2399	0	128	
2400	0	124	
2401	0	129	
2402	0	131	
2403	0	126	
2404	0	124	
2405	0	127	
2406	0	125	
2407	0	127	
2408	0	131	
2409	0	129	
2410	0	132	
2411	0	130	
2412	0	128	
2413	0	130	
2414	0	127	
2415	0	129	
2416	0	124	
2417	0	126	
2418	0	128	
2419	0	121	
2420	0	124	
2421	0	127	
2422	0	125	
2423	0	125	
2424	0	128	
2425	0	128	
2426	0	126	
2427	0	133	
2428	0	133	
2429	0	130	
2430	0	125	
2431	0	126	
2432	0	126	
2433	0	126	
2434	0	128	
2435	0	128	
2436	0	130	
2437	0	127	
2438	0	127	
2439	0	127	
2440	0	126	
2441	0	125	
2442	0	122	
2443	0	130	
2444	0	127	
2445	0	128	
2446	0	130	
2447	0	129	
2448	0	126	
2449	0	127	
2450	0	128	
2451	0	130	
2452	0	124	
2453	0	127	
2454	0	128	
2455	0	127	
2456	0	125	
2457	0	128	
2458	0	127	
2459	0	129	
2460	0	128	
2461	0	129	
2462	0	131	
2463	0	134	
2464	0	131	
2465	0	129	
2466	0	130	
2467	0	131	
2468	0	130	
2469	0	131	
2470	0	127	
2471	0	123	
2472	0	130	
2473	0	131	
2474	0	125	
2475	0	124	
2476	0	128	
2477	0	129	
2478	0	127	
2479	0	124	
2480	0	122	
2481	0	124	
2482	0	125	
2483	0	132	
2484	0	128	
2485	0	129	
2486	0	124	
2487	0	120	
2488	0	125	
2489	0	129	
2490	0	129	
2491	0	127	
2492	0	127	
2493	0	128	
2494	0	125	
2495	0	128	
2496	0	129	
2497	0	125	
2498	0	128	
2499	0	129	
2500	0	129	
2501	0	127	
2502	0	124	
2503	0	124	
2504	0	126	
2505	0	126	
2506	0	128	
2507	0	129	
2508	0	126	
2509	0	129	
2510	0	135	
2511	0	134	
2512	0	131	
2513	0	128	
2514	0	125	
2515	0	128	
2516	0	130	
2517	0	127	
2518	0	126	
2519	0	129	
2520	0	128	
2521	0	128	
2522	0	129	
2523	0	127	
2524	0	124	
2525	0	127	
2526	0	125	
2527	0	126	
2528	0	128	
2529	0	128	
2530	0	128	
2531	0	130	
2532	0	125	
2533	0	125	
2534	0	127	
2535	0	134	
2536	0	136	
2537	0	132	
2538	0	128	
2539	0	122	
2540	0	124	
2541	0	128	
2542	0	129	
2543	0	135	
2544	0	138	
2545	0	134	
2546	0	132	
2547	0	130	
2548	0	127	
2549	0	127	
2550	0	123	
2551	0	123	
2552	0	127	
2553	0	124	
2554	0	120	
2555	0	121	
2556	0	122	
2557	0	122	
2558	0	121	
2559	0	122	
2560	0	125	
2561	0	132	
2562	0	133	
2563	0	134	
2564	0	133	
2565	0	129	
2566	0	125	
2567	0	128	
2568	0	122	
2569	0	126	
2570	0	124	
2571	0	119	
2572	0	120	
2573	0	124	
2574	0	128	
2575	0	133	
2576	0	130	
2577	0	127	
2578	0	130	
2579	0	131	
2580	0	130	
2581	0	127	
2582	0	129	
2583	0	127	
2584	0	127	
2585	0	128	
2586	0	129	
2587	0	135	
2588	0	134	
2589	0	129	
2590	0	125	
2591	0	120	
2592	0	123	
2593	0	129	
2594	0	124	
2595	0	124	
2596	0	124	
2597	0	126	
2598	0	118	
2599	0	119	
2600	0	116	
2601	0	125	
2602	0	137	
2603	0	150	
2604	0	147	
2605	0	137	
2606	0	129	
2607	0	127	
2608	0	123	
2609	0	128	
2610	0	131	
2611	0	117	
2612	0	119	
2613	0	120	
2614	0	113	
2615	0	128	
2616	0	116	
2617	0	134	
2618	0	132	
2619	0	150	
2620	0	135	
2621	0	109	
2622	0	126	
2623	0	134	
2624	0	132	
2625	0	123	
2626	0	119	
2627	0	117	
2628	0	120	
2629	0	127	
2630	0	130	
2631	0	134	
2632	0	138	
2633	0	135	
2634	0	139	
2635	0	137	
2636	0	128	
2637	0	115	
2638	0	115	
2639	0	120	
2640	0	125	
2641	0	130	
2642	0	130	
2643	0	131	
2644	0	127	
2645	0	108	
2646	0	87	
2647	0	90	
2648	0	107	
2649	0	115	
2650	0	112	
2651	0	101	
2652	0	83	
2653	0	94	
2654	0	103	
2655	0	109	
2656	0	114	
2657	0	118	
2658	0	141	
2659	0	170	
2660	0	202	
2661	0	198	
2662	0	198	
2663	0	186	
2664	0	153	
2665	0	124	
2666	0	136	
2667	0	150	
2668	0	157	
2669	0	156	
2670	0	153	
2671	0	143	
2672	0	131	
2673	0	121	
2674	0	115	
2675	0	109	
2676	0	101	
2677	0	99	
2678	0	109	
2679	0	143	
2680	0	155	
2681	0	149	
2682	0	140	
2683	0	135	
2684	0	125	
2685	0	118	
2686	0	104	
2687	0	111	
2688	0	104	
2689	0	89	
2690	0	86	
2691	0	108	
2692	0	123	
2693	0	147	
2694	0	142	
2695	0	137	
2696	0	143	
2697	0	168	
2698	0	152	
2699	0	134	
2700	0	133	
2701	0	124	
2702	0	120	
2703	0	118	
2704	0	115	
2705	0	121	
2706	0	120	
2707	0	116	
2708	0	123	
2709	0	124	
2710	0	133	
2711	0	133	
2712	0	130	
2713	0	131	
2714	0	129	
2715	0	125	
2716	0	127	
2717	0	122	
2718	0	116	
2719	0	115	
2720	0	117	
2721	0	121	
2722	0	122	
2723	0	130	
2724	0	135	
2725	0	137	
2726	0	137	
2727	0	150	
2728	0	165	
2729	0	156	
2730	0	145	
2731	0	133	
2732	0	128	
2733	0	120	
2734	0	112	
2735	0	111	
2736	0	107	
2737	0	109	
2738	0	128	
2739	0	133	
2740	0	129	
2741	0	119	
2742	0	113	
2743	0	119	
2744	0	126	
2745	0	130	
2746	0	130	
2747	0	130	
2748	0	126	
2749	0	131	
2750	0	132	
2751	0	135	
2752	0	136	
2753	0	135	
2754	0	132	
2755	0	127	
2756	0	123	
2757	0	125	
2758	0	125	
2759	0	123	
2760	0	124	
2761	0	119	
2762	0	114	
2763	0	107	
2764	0	107	
2765	0	114	
2766	0	125	
2767	0	131	
2768	0	135	
2769	0	135	
2770	0	140	
2771	0	144	
2772	0	145	
2773	0	137	
2774	0	123	
2775	0	132	
2776	0	145	
2777	0	151	
2778	0	141	
2779	0	131	
2780	0	138	
2781	0	129	
2782	0	111	
2783	0	105	
2784	0	110	
2785	0	108	
2786	0	111	
2787	0	111	
2788	0	111	
2789	0	116	
2790	0	120	
2791	0	126	
2792	0	133	
2793	0	129	
2794	0	136	
2795	0	139	
2796	0	140	
2797	0	150	
2798	0	129	
2799	0	112	
2800	0	122	
2801	0	130	
2802	0	134	
2803	0	140	
2804	0	139	
2805	0	135	
2806	0	133	
2807	0	131	
2808	0	131	
2809	0	135	
2810	0	144	
2811	0	139	
2812	0	135	
2813	0	128	
2814	0	118	
2815	0	116	
2816	0	114	
2817	0	115	
2818	0	117	
2819	0	124	
2820	0	125	
2821	0	122	
2822	0	124	
2823	0	127	
2824	0	126	
2825	0	125	
2826	0	113	
2827	0	111	
2828	0	113	
2829	0	114	
2830	0	141	
2831	0	142	
2832	0	140	
2833	0	136	
2834	0	133	
2835	0	121	
2836	0	123	
2837	0	119	
2838	0	107	
2839	0	106	
2840	0	110	
2841	0	113	
2842	0	120	
2843	0	131	
2844	0	142	
2845	0	144	
2846	0	139	
2847	0	139	
2848	0	142	
2849	0	138	
2850	0	135	
2851	0	130	
2852	0	140	
2853	0	128	
2854	0	123	
2855	0	124	
2856	0	123	
2857	0	130	
2858	0	141	
2859	0	139	
2860	0	135	
2861	0	141	
2862	0	145	
2863	0	134	
2864	0	133	
2865	0	126	
2866	0	121	
2867	0	133	
2868	0	140	
2869	0	133	
2870	0	122	
2871	0	122	
2872	0	117	
2873	0	114	
2874	0	116	
2875	0	118	
2876	0	120	
2877	0	125	
2878	0	128	
2879	0	128	
2880	0	133	
2881	0	124	
2882	0	128	
2883	0	131	
2884	0	133	
2885	0	132	
2886	0	126	
2887	0	127	
2888	0	124	
2889	0	122	
2890	0	124	
2891	0	123	
2892	0	122	
2893	0	127	
2894	0	120	
2895	0	124	
2896	0	125	
2897	0	130	
2898	0	132	
2899	0	129	
2900	0	125	
2901	0	128	
2902	0	134	
2903	0	132	
2904	0	123	
2905	0	124	
2906	0	122	
2907	0	124	
2908	0	126	
2909	0	126	
2910	0	129	
2911	0	126	
2912	0	125	
2913	0	128	
2914	0	128	
2915	0	131	
2916	0	128	
2917	0	127	
2918	0	129	
2919	0	131	
2920	0	126	
2921	0	125	
2922	0	125	
2923	0	123	
2924	0	125	
2925	0	128	
2926	0	129	
2927	0	129	
2928	0	126	
2929	0	126	
2930	0	129	
2931	0	125	
2932	0	125	
2933	0	125	
2934	0	129	
2935	0	128	
2936	0	126	
2937	0	128	
2938	0	130	
2939	0	133	
2940	0	128	
2941	0	128	
2942	0	130	
2943	0	125	
2944	0	129	
2945	0	129	
2946	0	129	
2947	0	131	
2948	0	129	
2949	0	126	
2950	0	135	
2951	0	134	
2952	0	129	
2953	0	125	
2954	0	134	
2955	0	138	
2956	0	134	
2957	0	131	
2958	0	132	
2959	0	132	
2960	0	135	
2961	0	133	
2962	0	132	
2963	0	129	
2964	0	126	
2965	0	126	
2966	0	132	
2967	0	133	
2968	0	128	
2969	0	125	
2970	0	121	
2971	0	119	
2972	0	121	
2973	0	123	
2974	0	127	
2975	0	126	
2976	0	128	
2977	0	125	
2978	0	127	
2979	0	129	
2980	0	128	
2981	0	125	
2982	0	123	
2983	0	125	
2984	0	125	
2985	0	122	
2986	0	123	
2987	0	121	
2988	0	125	
2989	0	125	
2990	0	120	
2991	0	122	
2992	0	123	
2993	0	127	
2994	0	130	
2995	0	136	
2996	0	131	
2997	0	125	
2998	0	122	
2999	0	127	
3000	0	126	
3001	0	121	
3002	0	123	
3003	0	129	
3004	0	127	
3005	0	127	
3006	0	130	
3007	0	125	
3008	0	125	
3009	0	129	
3010	0	125	
3011	0	131	
3012	0	134	
3013	0	134	
3014	0	133	
3015	0	135	
3016	0	131	
3017	0	130	
3018	0	131	
3019	0	133	
3020	0	130	
3021	0	128	
3022	0	123	
3023	0	123	
3024	0	128	
3025	0	124	
3026	0	126	
3027	0	127	
3028	0	126	
3029	0	124	
3030	0	133	
3031	0	129	
3032	0	123	
3033	0	123	
3034	0	125	
3035	0	127	
3036	0	127	
3037	0	123	
3038	0	125	
3039	0	127	
3040	0	128	
3041	0	128	
3042	0	127	
3043	0	128	
3044	0	128	
3045	0	124	
3046	0	122	
3047	0	123	
3048	0	129	
3049	0	129	
3050	0	128	
3051	0	127	
3052	0	125	
3053	0	126	
3054	0	127	
3055	0	127	
3056	0	129	
3057	0	130	
3058	0	130	
3059	0	129	
3060	0	127	
3061	0	127	
3062	0	128	
3063	0	130	
3064	0	127	
3065	0	126	
3066	0	125	
3067	0	125	
3068	0	125	
3069	0	130	
3070	0	127	
3071	0	125	
3072	0	129	
3073	0	127	
3074	0	126	
3075	0	128	
3076	0	127	
3077	0	128	
3078	0	129	
3079	0	125	
3080	0	127	
3081	0	127	
3082	0	125	
3083	0	131	
3084	0	130	
3085	0	127	
3086	0	128	
3087	0	126	
3088	0	126	
3089	0	122	
3090	0	128	
3091	0	130	
3092	0	129	
3093	0	130	
3094	0	128	
3095	0	130	
3096	0	135	
3097	0	129	
3098	0	129	
3099	0	130	
3100	0	129	
3101	0	129	
3102	0	130	
3103	0	128	
3104	0	123	
3105	0	125	
3106	0	128	
3107	0	130	
3108	0	128	
3109	0	127	
3110	0	131	
3111	0	129	
3112	0	128	
3113	0	130	
3114	0	130	
3115	0	124	
3116	0	127	
3117	0	132	
3118	0	131	
3119	0	132	
3120	0	129	
3121	0	127	
3122	0	127	
3123	0	127	
3124	0	129	
3125	0	129	
3126	0	125	
3127	0	127	
3128	0	133	
3129	0	131	
3130	0	126	
3131	0	123	
3132	0	126	
3133	0	129	
3134	0	124	
3135	0	122	
3136	0	126	
3137	0	131	
3138	0	131	
3139	0	135	
3140	0	131	
3141	0	128	
3142	0	124	
3143	0	124	
3144	0	124	
3145	0	120	
3146	0	123	
3147	0	123	
3148	0	127	
3149	0	122	
3150	0	132	
3151	0	133	
3152	0	132	
3153	0	125	
3154	0	125	
3155	0	124	
3156	0	123	
3157	0	123	
3158	0	127	
3159	0	127	
3160	0	130	
3161	0	128	
3162	0	129	
3163	0	128	
3164	0	130	
3165	0	129	
3166	0	137	
3167	0	135	
3168	0	130	
3169	0	128	
3170	0	131	
3171	0	128	
3172	0	128	
3173	0	128	
3174	0	127	
3175	0	124	
3176	0	125	
3177	0	128	
3178	0	128	
3179	0	129	
3180	0	129	
3181	0	127	
3182	0	127	
3183	0	129	
3184	0	128	
3185	0	126	
3186	0	126	
3187	0	129	
3188	0	129	
3189	0	130	
3190	0	133	
3191	0	125	
3192	0	122	
3193	0	124	
3194	0	129	
3195	0	131	
3196	0	129	
3197	0	122	
3198	0	117	
3199	0	117	
3200	0	127	
3201	0	129	
3202	0	131	
3203	0	128	
3204	0	129	
3205	0	129	
3206	0	130	
3207	0	130	
3208	0	126	
3209	0	128	
3210	0	125	
3211	0	126	
3212	0	134	
3213	0	134	
3214	0	131	
3215	0	129	
3216	0	127	
3217	0	124	
3218	0	132	
3219	0	130	
3220	0	124	
3221	0	128	
3222	0	128	
3223	0	127	
3224	0	128	
3225	0	125	
3226	0	123	
3227	0	125	
3228	0	125	
3229	0	125	
3230	0	126	
3231	0	127	
3232	0	117	
3233	0	119	
3234	0	122	
3235	0	125	
3236	0	126	
3237	0	132	
3238	0	128	
3239	0	126	
3240	0	127	
3241	0	131	
3242	0	128	
3243	0	130	
3244	0	131	
3245	0	129	
3246	0	127	
3247	0	126	
3248	0	127	
3249	0	131	
3250	0	135	
3251	0	136	
3252	0	135	
3253	0	135	
3254	0	131	
3255	0	128	
3256	0	126	
3257	0	124	
3258	0	128	
3259	0	129	
3260	0	129	
3261	0	129	
3262	0	136	
3263	0	134	
3264	0	128	
3265	0	126	
3266	0	123	
3267	0	125	
3268	0	123	
3269	0	127	
3270	0	127	
3271	0	122	
3272	0	124	
3273	0	129	
3274	0	130	
3275	0	129	
3276	0	131	
3277	0	126	
3278	0	126	
3279	0	127	
3280	0	127	
3281	0	121	
3282	0	126	
3283	0	128	
3284	0	126	
3285	0	129	
3286	0	125	
3287	0	125	
3288	0	128	
3289	0	127	
3290	0	123	
3291	0	121	
3292	0	125	
3293	0	130	
3294	0	131	
3295	0	131	
3296	0	128	
3297	0	124	
3298	0	125	
3299	0	127	
3300	0	129	
3301	0	129	
3302	0	151	
3303	0	146	
3304	0	141	
3305	0	130	
3306	0	129	
3307	0	122	
3308	0	122	
3309	0	124	
3310	0	128	
3311	0	124	
3312	0	123	
3313	0	125	
3314	0	127	
3315	0	122	
3316	0	121	
3317	0	124	
3318	0	125	
3319	0	123	
3320	0	127	
3321	0	130	
3322	0	127	
3323	0	129	
3324	0	130	
3325	0	131	
3326	0	130	
3327	0	127	
3328	0	126	
3329	0	125	
3330	0	126	
3331	0	130	
3332	0	129	
3333	0	127	
3334	0	123	
3335	0	127	
3336	0	125	
3337	0	127	
3338	0	125	
3339	0	124	
3340	0	127	
3341	0	126	
3342	0	122	
3343	0	122	
3344	0	127	
3345	0	127	
3346	0	131	
3347	0	132	
3348	0	131	
3349	0	129	
3350	0	133	
3351	0	131	
3352	0	126	
3353	0	127	
3354	0	123	
3355	0	123	
3356	0	130	
3357	0	132	
3358	0	127	
3359	0	127	
3360	0	127	
3361	0	126	
3362	0	128	
3363	0	132	
3364	0	126	
3365	0	123	
3366	0	123	
3367	0	124	
3368	0	123	
3369	0	126	
3370	0	125	
3371	0	129	
3372	0	132	
3373	0	128	
3374	0	131	
3375	0	127	
3376	0	125	
3377	0	128	
3378	0	129	
3379	0	128	
3380	0	135	
3381	0	129	
3382	0	122	
3383	0	126	
3384	0	127	
3385	0	126	
3386	0	127	
3387	0	132	
3388	0	131	
3389	0	130	
3390	0	124	
3391	0	123	
3392	0	126	
3393	0	130	
3394	0	128	
3395	0	130	
3396	0	126	
3397	0	127	
3398	0	126	
3399	0	129	
3400	0	133	
3401	0	129	
3402	0	127	
3403	0	125	
3404	0	125	
3405	0	125	
3406	0	128	
3407	0	127	
3408	0	125	
3409	0	128	
3410	0	130	
3411	0	132	
3412	0	130	
3413	0	129	
3414	0	132	
3415	0	135	
3416	0	132	
3417	0	128	
3418	0	130	
3419	0	126	
3420	0	124	
3421	0	125	
3422	0	126	
3423	0	127	
3424	0	127	
3425	0	125	
3426	0	127	
3427	0	123	
3428	0	124	
3429	0	128	
3430	0	129	
3431	0	127	
3432	0	126	
3433	0	126	
3434	0	130	
3435	0	127	
3436	0	128	
3437	0	125	
3438	0	128	
3439	0	133	
3440	0	135	
3441	0	134	
3442	0	128	
3443	0	124	
3444	0	123	
3445	0	126	
3446	0	130	
3447	0	130	
3448	0	130	
3449	0	123	
3450	0	126	
3451	0	126	
3452	0	124	
3453	0	119	
3454	0	122	
3455	0	123	
3456	0	125	
3457	0	128	
3458	0	133	
3459	0	134	
3460	0	131	
3461	0	124	
3462	0	123	
3463	0	127	
3464	0	131	
3465	0	127	
3466	0	128	
3467	0	126	
3468	0	129	
3469	0	130	
3470	0	126	
3471	0	127	
3472	0	126	
3473	0	127	
3474	0	127	
3475	0	126	
3476	0	129	
3477	0	130	
3478	0	131	
3479	0	127	
3480	0	125	
3481	0	127	
3482	0	127	
3483	0	127	
3484	0	127	
3485	0	127	
3486	0	127	
3487	0	125	
3488	0	125	
3489	0	121	
3490	0	126	
3491	0	133	
3492	0	131	
3493	0	131	
3494	0	126	
3495	0	126	
3496	0	124	
3497	0	126	
3498	0	123	
3499	0	125	
3500	0	129	
3501	0	127	
3502	0	127	
3503	0	128	
3504	0	134	
3505	0	132	
3506	0	128	
3507	0	130	
3508	0	133	
3509	0	131	
3510	0	133	
3511	0	131	
3512	0	125	
3513	0	121	
3514	0	121	
3515	0	122	
3516	0	125	
3517	0	131	
3518	0	131	
3519	0	130	
3520	0	129	
3521	0	126	
3522	0	126	
3523	0	126	
3524	0	127	
3525	0	126	
3526	0	127	
3527	0	127	
3528	0	127	
3529	0	127	
3530	0	126	
3531	0	128	
3532	0	131	
3533	0	125	
3534	0	128	
3535	0	126	
3536	0	128	
3537	0	130	
3538	0	131	
3539	0	128	
3540	0	128	
3541	0	128	
3542	0	123	
3543	0	123	
3544	0	126	
3545	0	126	
3546	0	126	
3547	0	127	
3548	0	130	
3549	0	128	
3550	0	128	
3551	0	127	
3552	0	128	
3553	0	125	
3554	0	125	
3555	0	126	
3556	0	126	
3557	0	129	
3558	0	126	
3559	0	129	
3560	0	130	
3561	0	128	
3562	0	126	
3563	0	130	
3564	0	134	
3565	0	134	
3566	0	128	
3567	0	127	
3568	0	129	
3569	0	130	
3570	0	129	
3571	0	130	
3572	0	130	
3573	0	129	
3574	0	124	
3575	0	125	
3576	0	128	
3577	0	127	
3578	0	127	
3579	0	131	
3580	0	130	
3581	0	128	
3582	0	127	
3583	0	123	
3584	0	123	
3585	0	126	
3586	0	122	
3587	0	123	
3588	0	127	
3589	0	129	
3590	0	127	
3591	0	128	
3592	0	125	
3593	0	124	
3594	0	126	
3595	0	127	
3596	0	127	
3597	0	129	
3598	0	132	
3599	0	133	
3600	0	133	
3601	0	125	
3602	0	124	
3603	0	124	
3604	0	126	
3605	0	128	
3606	0	130	
3607	0	131	
3608	0	129	
3609	0	127	
3610	0	129	
3611	0	133	
3612	0	127	
3613	0	127	
3614	0	129	
3615	0	128	
3616	0	127	
3617	0	128	
3618	0	125	
3619	0	122	
3620	0	123	
3621	0	123	
3622	0	124	
3623	0	127	
3624	0	130	
3625	0	128	
3626	0	131	
3627	0	132	
3628	0	127	
3629	0	127	
3630	0	129	
3631	0	131	
3632	0	130	
3633	0	127	
3634	0	124	
3635	0	125	
3636	0	124	
3637	0	127	
3638	0	132	
3639	0	130	
3640	0	132	
3641	0	129	
3642	0	127	
3643	0	131	
3644	0	127	
3645	0	128	
3646	0	129	
3647	0	128	
3648	0	126	
3649	0	121	
3650	0	126	
3651	0	126	
3652	0	126	
3653	0	125	
3654	0	126	
3655	0	129	
3656	0	129	
3657	0	130	
3658	0	126	
3659	0	128	
3660	0	130	
3661	0	128	
3662	0	130	
3663	0	124	
3664	0	123	
3665	0	127	
3666	0	127	
3667	0	130	
3668	0	126	
3669	0	131	
3670	0	128	
3671	0	127	
3672	0	129	
3673	0	128	
3674	0	129	
3675	0	126	
3676	0	126	
3677	0	124	
3678	0	129	
3679	0	129	
3680	0	133	
3681	0	129	
3682	0	124	
3683	0	126	
3684	0	129	
3685	0	125	
3686	0	129	
3687	0	132	
3688	0	126	
3689	0	125	
3690	0	129	
3691	0	129	
3692	0	126	
3693	0	127	
3694	0	130	
3695	0	128	
3696	0	128	
3697	0	128	
3698	0	125	
3699	0	126	
3700	0	128	
3701	0	122	
3702	0	129	
3703	0	129	
3704	0	126	
3705	0	128	
3706	0	127	
3707	0	126	
3708	0	128	
3709	0	130	
3710	0	131	
3711	0	131	
3712	0	127	
3713	0	126	
3714	0	124	
3715	0	124	
3716	0	122	
3717	0	130	
3718	0	132	
3719	0	130	
3720	0	128	
3721	0	125	
3722	0	126	
3723	0	128	
3724	0	126	
3725	0	132	
3726	0	132	
3727	0	130	
3728	0	127	
3729	0	130	
3730	0	125	
3731	0	126	
3732	0	126	
3733	0	125	
3734	0	127	
3735	0	125	
3736	0	130	
3737	0	127	
3738	0	126	
3739	0	123	
3740	0	127	
3741	0	134	
3742	0	127	
3743	0	125	
3744	0	128	
3745	0	131	
3746	0	129	
3747	0	131	
3748	0	128	
3749	0	128	
3750	0	129	
3751	0	124	
3752	0	121	
3753	0	122	
3754	0	123	
3755	0	124	
3756	0	129	
3757	0	128	
3758	0	132	
3759	0	130	
3760	0	132	
3761	0	133	
3762	0	131	
3763	0	131	
3764	0	127	
3765	0	130	
3766	0	138	
3767	0	141	
3768	0	136	
3769	0	131	
3770	0	127	
3771	0	122	
3772	0	119	
3773	0	121	
3774	0	126	
3775	0	130	
3776	0	130	
3777	0	123	
3778	0	120	
3779	0	129	
3780	0	128	
3781	0	126	
3782	0	126	
3783	0	124	
3784	0	122	
3785	0	124	
3786	0	125	
3787	0	128	
3788	0	128	
3789	0	129	
3790	0	132	
3791	0	126	
3792	0	113	
3793	0	114	
3794	0	118	
3795	0	118	
3796	0	125	
3797	0	128	
3798	0	133	
3799	0	134	
3800	0	132	
3801	0	132	
3802	0	134	
3803	0	131	
3804	0	130	
3805	0	125	
3806	0	130	
3807	0	133	
3808	0	135	
3809	0	135	
3810	0	129	
3811	0	130	
3812	0	129	
3813	0	127	
3814	0	126	
3815	0	123	
3816	0	124	
3817	0	130	
3818	0	132	
3819	0	130	
3820	0	128	
3821	0	127	
3822	0	130	
3823	0	127	
3824	0	125	
3825	0	126	
3826	0	121	
3827	0	119	
3828	0	124	
3829	0	127	
3830	0	129	
3831	0	127	
3832	0	129	
3833	0	131	
3834	0	130	
3835	0	130	
3836	0	127	
3837	0	125	
3838	0	126	
3839	0	129	
3840	0	131	
3841	0	132	
3842	0	132	
3843	0	132	
3844	0	133	
3845	0	133	
3846	0	131	
3847	0	125	
3848	0	122	
3849	0	124	
3850	0	125	
3851	0	128	
3852	0	127	
3853	0	129	
3854	0	127	
3855	0	121	
3856	0	124	
3857	0	124	
3858	0	127	
3859	0	130	
3860	0	131	
3861	0	134	
3862	0	134	
3863	0	129	
3864	0	121	
3865	0	121	
3866	0	125	
3867	0	127	
3868	0	124	
3869	0	124	
3870	0	125	
3871	0	129	
3872	0	130	
3873	0	129	
3874	0	130	
3875	0	124	
3876	0	125	
3877	0	127	
3878	0	125	
3879	0	128	
3880	0	127	
3881	0	129	
3882	0	132	
3883	0	129	
3884	0	133	
3885	0	129	
3886	0	124	
3887	0	123	
3888	0	125	
3889	0	123	
3890	0	126	
3891	0	130	
3892	0	131	
3893	0	131	
3894	0	133	
3895	0	132	
3896	0	125	
3897	0	132	
3898	0	131	
3899	0	123	
3900	0	124	
3901	0	126	
3902	0	127	
3903	0	125	
3904	0	122	
3905	0	124	
3906	0	126	
3907	0	128	
3908	0	129	
3909	0	127	
3910	0	129	
3911	0	132	
3912	0	129	
3913	0	128	
3914	0	127	
3915	0	123	
3916	0	124	
3917	0	123	
3918	0	129	
3919	0	131	
3920	0	130	
3921	0	129	
3922	0	123	
3923	0	127	
3924	0	128	
3925	0	130	
3926	0	131	
3927	0	128	
3928	0	129	
3929	0	123	
3930	0	125	
3931	0	122	
3932	0	127	
3933	0	125	
3934	0	132	
3935	0	133	
3936	0	140	
3937	0	132	
3938	0	129	
3939	0	130	
3940	0	131	
3941	0	131	
3942	0	129	
3943	0	127	
3944	0	127	
3945	0	126	
3946	0	126	
3947	0	123	
3948	0	127	
3949	0	124	
3950	0	124	
3951	0	127	
3952	0	126	
3953	0	126	
3954	0	126	
3955	0	125	
3956	0	127	
3957	0	129	
3958	0	134	
3959	0	133	
3960	0	132	
3961	0	129	
3962	0	124	
3963	0	123	
3964	0	126	
3965	0	128	
3966	0	125	
3967	0	123	
3968	0	127	
3969	0	128	
3970	0	127	
3971	0	125	
3972	0	130	
3973	0	131	
3974	0	131	
3975	0	128	
3976	0	125	
3977	0	128	
3978	0	125	
3979	0	127	
3980	0	129	
3981	0	128	
3982	0	127	
3983	0	125	
3984	0	128	
3985	0	130	
3986	0	126	
3987	0	127	
3988	0	124	
3989	0	129	
3990	0	129	
3991	0	127	
3992	0	128	
3993	0	125	
3994	0	128	
3995	0	130	
3996	0	131	
3997	0	127	
3998	0	129	
3999	0	127	
4000	0	124	
4001	0	124	
4002	0	123	
4003	0	124	
4004	0	128	
4005	0	132	
4006	0	130	
4007	0	131	
4008	0	130	
4009	0	126	
4010	0	127	
4011	0	128	
4012	0	126	
4013	0	125	
4014	0	126	
4015	0	129	
4016	0	130	
4017	0	133	
4018	0	130	
4019	0	129	
4020	0	128	
4021	0	127	
4022	0	124	
4023	0	128	
4024	0	131	
4025	0	131	
4026	0	129	
4027	0	126	
4028	0	125	
4029	0	122	
4030	0	124	
4031	0	129	
4032	0	125	
4033	0	125	
4034	0	124	
4035	0	122	
4036	0	125	
4037	0	125	
4038	0	127	
4039	0	129	
4040	0	130	
4041	0	133	
4042	0	134	
4043	0	136	
4044	0	137	
4045	0	135	
4046	0	128	
4047	0	126	
4048	0	125	
4049	0	130	
4050	0	129	
4051	0	126	
4052	0	124	
4053	0	123	
4054	0	128	
4055	0	126	
4056	0	125	
4057	0	128	
4058	0	129	
4059	0	129	
4060	0	129	
4061	0	126	
4062	0	129	
4063	0	128	
4064	0	123	
4065	0	125	
4066	0	122	
4067	0	124	
4068	0	130	
4069	0	131	
4070	0	132	
4071	0	133	
4072	0	134	
4073	0	127	
4074	0	126	
4075	0	125	
4076	0	124	
4077	0	122	
4078	0	126	
4079	0	129	
4080	0	130	
4081	0	126	
4082	0	125	
4083	0	126	
4084	0	126	
4085	0	131	
4086	0	132	
4087	0	132	
4088	0	132	
4089	0	124	
4090	0	123	
4091	0	124	
4092	0	127	
4093	0	125	
4094	0	126	
4095	0	129	
4096	0	131	
4097	0	133	
4098	0	130	
4099	0	127	
4100	0	125	
4101	0	124	
4102	0	125	
4103	0	131	
4104	0	135	
4105	0	138	
4106	0	131	
4107	0	129	
4108	0	127	
4109	0	125	
4110	0	124	
4111	0	126	
4112	0	125	
4113	0	126	
4114	0	128	
4115	0	125	
4116	0	124	
4117	0	125	
4118	0	126	
4119	0	130	
4120	0	131	
4121	0	130	
4122	0	128	
4123	0	123	
4124	0	125	
4125	0	130	
4126	0	133	
4127	0	126	
4128	0	122	
4129	0	126	
4130	0	126	
4131	0	126	
4132	0	128	
4133	0	128	
4134	0	128	
4135	0	128	
4136	0	131	
4137	0	134	
4138	0	131	
4139	0	128	
4140	0	131	
4141	0	129	
4142	0	130	
4143	0	128	
4144	0	126	
4145	0	126	
4146	0	122	
4147	0	126	
4148	0	127	
4149	0	127	
4150	0	129	
4151	0	128	
4152	0	127	
4153	0	128	
4154	0	129	
4155	0	128	
4156	0	129	
4157	0	131	
4158	0	124	
4159	0	124	
4160	0	125	
4161	0	122	
4162	0	123	
4163	0	128	
4164	0	132	
4165	0	131	
4166	0	130	
4167	0	126	
4168	0	124	
4169	0	124	
4170	0	126	
4171	0	126	
4172	0	132	
4173	0	130	
4174	0	125	
4175	0	126	
4176	0	126	
4177	0	130	
4178	0	131	
4179	0	129	
4180	0	132	
4181	0	127	
4182	0	126	
4183	0	126	
4184	0	129	
4185	0	125	
4186	0	122	
4187	0	125	
4188	0	123	
4189	0	125	
4190	0	125	
4191	0	129	
4192	0	127	
4193	0	128	
4194	0	127	
4195	0	127	
4196	0	131	
4197	0	131	
4198	0	128	
4199	0	127	
4200	0	126	
4201	0	122	
4202	0	124	
4203	0	127	
4204	0	128	
4205	0	125	
4206	0	126	
4207	0	130	
4208	0	132	
4209	0	136	
4210	0	134	
4211	0	134	
4212	0	127	
4213	0	123	
4214	0	124	
4215	0	129	
4216	0	127	
4217	0	124	
4218	0	125	
4219	0	123	
4220	0	124	
4221	0	124	
4222	0	128	
4223	0	128	
4224	0	131	
4225	0	130	
4226	0	132	
4227	0	132	
4228	0	128	
4229	0	127	
4230	0	128	
4231	0	128	
4232	0	129	
4233	0	131	
4234	0	127	
4235	0	127	
4236	0	127	
4237	0	125	
4238	0	125	
4239	0	124	
4240	0	124	
4241	0	123	
4242	0	124	
4243	0	125	
4244	0	126	
4245	0	129	
4246	0	130	
4247	0	130	
4248	0	131	
4249	0	131	
4250	0	133	
4251	0	127	
4252	0	125	
4253	0	125	
4254	0	124	
4255	0	122	
4256	0	125	
4257	0	127	
4258	0	128	
4259	0	130	
4260	0	129	
4261	0	128	
4262	0	124	
4263	0	124	
4264	0	125	
4265	0	129	
4266	0	125	
4267	0	126	
4268	0	127	
4269	0	124	
4270	0	128	
4271	0	126	
4272	0	128	
4273	0	131	
4274	0	130	
4275	0	128	
4276	0	130	
4277	0	134	
4278	0	131	
4279	0	130	
4280	0	128	
4281	0	127	
4282	0	128	
4283	0	130	
4284	0	126	
4285	0	127	
4286	0	130	
4287	0	128	
4288	0	128	
4289	0	127	
4290	0	130	
4291	0	132	
4292	0	130	
4293	0	129	
4294	0	127	
4295	0	128	
4296	0	125	
4297	0	124	
4298	0	126	
4299	0	126	
4300	0	127	
4301	0	130	
4302	0	129	
4303	0	129	
4304	0	126	
4305	0	127	
4306	0	129	
4307	0	130	
4308	0	129	
4309	0	128	
4310	0	128	
4311	0	128	
4312	0	129	
4313	0	126	
4314	0	129	
4315	0	129	
4316	0	123	
4317	0	120	
4318	0	123	
4319	0	129	
4320	0	131	
4321	0	129	
4322	0	130	
4323	0	130	
4324	0	128	
4325	0	128	
4326	0	124	
4327	0	125	
4328	0	124	
4329	0	126	
4330	0	126	
4331	0	126	
4332	0	131	
4333	0	130	
4334	0	128	
4335	0	126	
4336	0	127	
4337	0	131	
4338	0	127	
4339	0	125	
4340	0	125	
4341	0	125	
4342	0	125	
4343	0	127	
4344	0	129	
4345	0	128	
4346	0	129	
4347	0	126	
4348	0	129	
4349	0	128	
4350	0	128	
4351	0	127	
4352	0	128	
4353	0	127	
4354	0	128	
4355	0	127	
4356	0	126	
4357	0	128	
4358	0	129	
4359	0	129	
4360	0	131	
4361	0	132	
4362	0	126	
4363	0	128	
4364	0	124	
4365	0	122	
4366	0	125	
4367	0	126	
4368	0	129	
4369	0	128	
4370	0	128	
4371	0	131	
4372	0	130	
4373	0	128	
4374	0	123	
4375	0	128	
4376	0	131	
4377	0	129	
4378	0	126	
4379	0	128	
4380	0	123	
4381	0	124	
4382	0	127	
4383	0	128	
4384	0	129	
4385	0	130	
4386	0	131	
4387	0	127	
4388	0	126	
4389	0	130	
4390	0	128	
4391	0	129	
4392	0	124	
4393	0	123	
4394	0	126	
4395	0	127	
4396	0	129	
4397	0	126	
4398	0	126	
4399	0	130	
4400	0	128	
4401	0	127	
4402	0	130	
4403	0	131	
4404	0	131	
4405	0	126	
4406	0	124	
4407	0	126	
4408	0	125	
4409	0	129	
4410	0	129	
4411	0	128	
4412	0	125	
4413	0	124	
4414	0	126	
4415	0	127	
4416	0	128	
4417	0	127	
4418	0	128	
4419	0	127	
4420	0	128	
4421	0	129	
4422	0	126	
4423	0	130	
4424	0	130	
4425	0	130	
4426	0	131	
4427	0	127	
4428	0	120	
4429	0	123	
4430	0	128	
4431	0	129	
4432	0	133	
4433	0	131	
4434	0	127	
4435	0	121	
4436	0	122	
4437	0	127	
4438	0	126	
4439	0	125	
4440	0	129	
4441	0	134	
4442	0	131	
4443	0	127	
4444	0	130	
4445	0	130	
4446	0	127	
4447	0	127	
4448	0	131	
4449	0	127	
4450	0	126	
4451	0	130	
4452	0	130	
4453	0	128	
4454	0	129	
4455	0	127	
4456	0	127	
4457	0	126	
4458	0	127	
4459	0	128	
4460	0	128	
4461	0	125	
4462	0	125	
4463	0	124	
4464	0	125	
4465	0	129	
4466	0	130	
4467	0	129	
4468	0	129	
4469	0	128	
4470	0	127	
4471	0	127	
4472	0	128	
4473	0	128	
4474	0	131	
4475	0	131	
4476	0	130	
4477	0	125	
4478	0	124	
4479	0	123	
4480	0	123	
4481	0	124	
4482	0	124	
4483	0	126	
4484	0	127	
4485	0	128	
4486	0	129	
4487	0	126	
4488	0	127	
4489	0	128	
4490	0	130	
4491	0	130	
4492	0	129	
4493	0	127	
4494	0	129	
4495	0	128	
4496	0	128	
4497	0	129	
4498	0	130	
4499	0	130	
4500	0	128	
4501	0	131	
4502	0	125	
4503	0	124	
4504	0	127	
4505	0	123	
4506	0	122	
4507	0	122	
4508	0	123	
4509	0	130	
4510	0	127	
4511	0	131	
4512	0	134	
4513	0	137	
4514	0	135	
4515	0	132	
4516	0	129	
4517	0	122	
4518	0	121	
4519	0	124	
4520	0	124	
4521	0	128	
4522	0	131	
4523	0	129	
4524	0	127	
4525	0	129	
4526	0	127	
4527	0	128	
4528	0	123	
4529	0	128	
4530	0	128	
4531	0	126	
4532	0	130	
4533	0	129	
4534	0	128	
4535	0	128	
4536	0	126	
4537	0	128	
4538	0	124	
4539	0	126	
4540	0	127	
4541	0	125	
4542	0	127	
4543	0	128	
4544	0	126	
4545	0	129	
4546	0	130	
4547	0	132	
4548	0	130	
4549	0	128	
4550	0	125	
4551	0	124	
4552	0	128	
4553	0	126	
4554	0	125	
4555	0	125	
4556	0	128	
4557	0	127	
4558	0	130	
4559	0	131	
4560	0	131	
4561	0	131	
4562	0	127	
4563	0	128	
4564	0	127	
4565	0	130	
4566	0	128	
4567	0	128	
4568	0	127	
4569	0	126	
4570	0	127	
4571	0	129	
4572	0	129	
4573	0	129	
4574	0	126	
4575	0	129	
4576	0	131	
4577	0	130	
4578	0	131	
4579	0	128	
4580	0	126	
4581	0	127	
4582	0	125	
4583	0	127	
4584	0	121	
4585	0	124	
4586	0	125	
4587	0	127	
4588	0	127	
4589	0	126	
4590	0	127	
4591	0	126	
4592	0	129	
4593	0	133	
4594	0	128	
4595	0	127	
4596	0	128	
4597	0	131	
4598	0	131	
4599	0	132	
4600	0	133	
4601	0	131	
4602	0	131	
4603	0	131	
4604	0	130	
4605	0	128	
4606	0	125	
4607	0	123	
4608	0	123	
4609	0	121	
4610	0	125	
4611	0	127	
4612	0	127	
4613	0	128	
4614	0	127	
4615	0	130	
4616	0	134	
4617	0	130	
4618	0	126	
4619	0	130	
4620	0	128	
4621	0	127	
4622	0	127	
4623	0	127	
4624	0	124	
4625	0	126	
4626	0	123	
4627	0	125	
4628	0	126	
4629	0	126	
4630	0	128	
4631	0	131	
4632	0	132	
4633	0	127	
4634	0	128	
4635	0	128	
4636	0	129	
4637	0	127	
4638	0	126	
4639	0	125	
4640	0	124	
4641	0	125	
4642	0	126	
4643	0	128	
4644	0	128	
4645	0	130	
4646	0	130	
4647	0	129	
4648	0	130	
4649	0	132	
4650	0	133	
4651	0	134	
4652	0	131	
4653	0	132	
4654	0	128	
4655	0	126	
4656	0	125	
4657	0	126	
4658	0	126	
4659	0	123	
4660	0	126	
4661	0	126	
4662	0	122	
4663	0	126	
4664	0	129	
4665	0	129	
4666	0	128	
4667	0	127	
4668	0	126	
4669	0	124	
4670	0	128	
4671	0	129	
4672	0	128	
4673	0	129	
4674	0	132	
4675	0	124	
4676	0	125	
4677	0	126	
4678	0	127	
4679	0	128	
4680	0	130	
4681	0	129	
4682	0	129	
4683	0	124	
4684	0	126	
4685	0	125	
4686	0	125	
4687	0	126	
4688	0	129	
4689	0	130	
4690	0	127	
4691	0	129	
4692	0	130	
4693	0	127	
4694	0	127	
4695	0	126	
4696	0	127	
4697	0	124	
4698	0	125	
4699	0	129	
4700	0	129	
4701	0	128	
4702	0	128	
4703	0	127	
4704	0	127	
4705	0	123	
4706	0	124	
4707	0	124	
4708	0	126	
4709	0	126	
4710	0	127	
4711	0	128	
4712	0	127	
4713	0	128	
4714	0	126	
4715	0	127	
4716	0	130	
4717	0	131	
4718	0	129	
4719	0	130	
4720	0	128	
4721	0	129	
4722	0	127	
4723	0	129	
4724	0	132	
4725	0	129	
4726	0	127	
4727	0	126	
4728	0	126	
4729	0	125	
4730	0	126	
4731	0	130	
4732	0	125	
4733	0	122	
4734	0	126	
4735	0	130	
4736	0	131	
4737	0	127	
4738	0	126	
4739	0	128	
4740	0	126	
4741	0	127	
4742	0	130	
4743	0	131	
4744	0	130	
4745	0	125	
4746	0	125	
4747	0	125	
4748	0	124	
4749	0	127	
4750	0	124	
4751	0	129	
4752	0	131	
4753	0	129	
4754	0	126	
4755	0	125	
4756	0	124	
4757	0	125	
4758	0	128	
4759	0	130	
4760	0	130	
4761	0	132	
4762	0	130	
4763	0	129	
4764	0	127	
4765	0	127	
4766	0	133	
4767	0	132	
4768	0	129	
4769	0	129	
4770	0	129	
4771	0	124	
4772	0	123	
4773	0	127	
4774	0	128	
4775	0	130	
4776	0	127	
4777	0	128	
4778	0	128	
4779	0	128	
4780	0	130	
4781	0	128	
4782	0	127	
4783	0	129	
4784	0	127	
4785	0	128	
4786	0	129	
4787	0	132	
4788	0	129	
4789	0	128	
4790	0	129	
4791	0	131	
4792	0	129	
4793	0	123	
4794	0	121	
4795	0	123	
4796	0	125	
4797	0	128	
4798	0	128	
4799	0	126	
4800	0	127	
4801	0	128	
4802	0	131	
4803	0	133	
4804	0	131	
4805	0	128	
4806	0	128	
4807	0	125	
4808	0	122	
4809	0	125	
4810	0	125	
4811	0	127	
4812	0	128	
4813	0	129	
4814	0	131	
4815	0	131	
4816	0	129	
4817	0	128	
4818	0	123	
4819	0	126	
4820	0	127	
4821	0	130	
4822	0	131	
4823	0	130	
4824	0	128	
4825	0	129	
4826	0	131	
4827	0	129	
4828	0	124	
4829	0	126	
4830	0	127	
4831	0	126	
4832	0	127	
4833	0	127	
4834	0	129	
4835	0	129	
4836	0	128	
4837	0	122	
4838	0	124	
4839	0	127	
4840	0	132	
4841	0	131	
4842	0	133	
4843	0	131	
4844	0	128	
4845	0	124	
4846	0	124	
4847	0	123	
4848	0	125	
4849	0	127	
4850	0	130	
4851	0	132	
4852	0	128	
4853	0	126	
4854	0	126	
4855	0	125	
4856	0	125	
4857	0	125	
4858	0	128	
4859	0	125	
4860	0	128	
4861	0	130	
4862	0	130	
4863	0	130	
4864	0	129	
4865	0	129	
4866	0	129	
4867	0	129	
4868	0	127	
4869	0	125	
4870	0	124	
4871	0	127	
4872	0	129	
4873	0	131	
4874	0	131	
4875	0	128	
4876	0	128	
4877	0	130	
4878	0	127	
4879	0	125	
4880	0	128	
4881	0	129	
4882	0	125	
4883	0	122	
4884	0	118	
4885	0	120	
4886	0	124	
4887	0	126	
4888	0	129	
4889	0	132	
4890	0	130	
4891	0	131	
4892	0	131	
4893	0	130	
4894	0	127	
4895	0	131	
4896	0	126	
4897	0	125	
4898	0	122	
4899	0	127	
4900	0	128	
4901	0	130	
4902	0	127	
4903	0	123	
4904	0	130	
4905	0	131	
4906	0	126	
4907	0	124	
4908	0	124	
4909	0	125	
4910	0	129	
4911	0	131	
4912	0	131	
4913	0	132	
4914	0	129	
4915	0	127	
4916	0	124	
4917	0	127	
4918	0	127	
4919	0	128	
4920	0	127	
4921	0	129	
4922	0	130	
4923	0	129	
4924	0	130	
4925	0	126	
4926	0	127	
4927	0	126	
4928	0	128	
4929	0	130	
4930	0	129	
4931	0	129	
4932	0	124	
4933	0	126	
4934	0	128	
4935	0	127	
4936	0	127	
4937	0	128	
4938	0	128	
4939	0	131	
4940	0	128	
4941	0	127	
4942	0	128	
4943	0	131	
4944	0	129	
4945	0	126	
4946	0	124	
4947	0	125	
4948	0	126	
4949	0	124	
4950	0	129	
4951	0	128	
4952	0	130	
4953	0	130	
4954	0	130	
4955	0	129	
4956	0	127	
4957	0	122	
4958	0	117	
4959	0	116	
4960	0	118	
4961	0	119	
4962	0	125	
4963	0	130	
4964	0	131	
4965	0	131	
4966	0	131	
4967	0	133	
4968	0	132	
4969	0	132	
4970	0	130	
4971	0	129	
4972	0	128	
4973	0	125	
4974	0	127	
4975	0	126	
4976	0	129	
4977	0	129	
4978	0	131	
4979	0	129	
4980	0	125	
4981	0	130	
4982	0	133	
4983	0	128	
4984	0	125	
4985	0	129	
4986	0	132	
4987	0	130	
4988	0	126	
4989	0	129	
4990	0	132	
4991	0	129	
4992	0	130	
4993	0	128	
4994	0	131	
4995	0	128	
4996	0	126	
4997	0	128	
4998	0	127	
4999	0	129	
5000	0	130	
5001	0	131	
5002	0	128	
5003	0	125	
5004	0	124	
5005	0	125	
5006	0	124	
5007	0	122	
5008	0	125	
5009	0	126	
5010	0	128	
5011	0	131	
5012	0	129	
5013	0	129	
5014	0	124	
5015	0	122	
5016	0	124	
5017	0	122	
5018	0	126	
5019	0	130	
5020	0	129	
5021	0	130	
5022	0	131	
5023	0	127	
5024	0	128	
5025	0	130	
5026	0	130	
5027	0	129	
5028	0	128	
5029	0	125	
5030	0	131	
5031	0	129	
5032	0	130	
5033	0	130	
5034	0	127	
5035	0	125	
5036	0	125	
5037	0	127	
5038	0	126	
5039	0	124	
5040	0	130	
5041	0	133	
5042	0	131	
5043	0	129	
5044	0	127	
5045	0	125	
5046	0	124	
5047	0	120	
5048	0	122	
5049	0	121	
5050	0	129	
5051	0	130	
5052	0	131	
5053	0	131	
5054	0	129	
5055	0	128	
5056	0	133	
5057	0	130	
5058	0	128	
5059	0	126	
5060	0	127	
5061	0	131	
5062	0	130	
5063	0	128	
5064	0	125	
5065	0	126	
5066	0	127	
5067	0	125	
5068	0	122	
5069	0	126	
5070	0	129	
5071	0	129	
5072	0	130	
5073	0	132	
5074	0	128	
5075	0	126	
5076	0	125	
5077	0	126	
5078	0	124	
5079	0	124	
5080	0	127	
5081	0	127	
5082	0	127	
5083	0	127	
5084	0	129	
5085	0	128	
5086	0	125	
5087	0	127	
5088	0	121	
5089	0	124	
5090	0	124	
5091	0	127	
5092	0	134	
5093	0	134	
5094	0	131	
5095	0	138	
5096	0	131	
5097	0	121	
5098	0	119	
5099	0	119	
5100	0	142	
5101	0	162	
5102	0	153	
5103	0	137	
5104	0	151	
5105	0	147	
5106	0	140	
5107	0	130	
5108	0	113	
5109	0	96	
5110	0	100	
5111	0	125	
5112	0	132	
5113	0	131	
5114	0	129	
5115	0	124	
5116	0	121	
5117	0	122	
5118	0	118	
5119	0	120	
5120	0	122	
5121	0	122	
5122	0	119	
5123	0	121	
5124	0	121	
5125	0	121	
5126	0	111	
5127	0	95	
5128	0	97	
5129	0	94	
5130	0	120	
5131	0	146	
5132	0	145	
5133	0	123	
5134	0	125	
5135	0	116	
5136	0	146	
5137	0	154	
5138	0	123	
5139	0	110	
5140	0	123	
5141	0	128	
5142	0	128	
5143	0	125	
5144	0	134	
5145	0	136	
5146	0	140	
5147	0	137	
5148	0	141	
5149	0	146	
5150	0	144	
5151	0	139	
5152	0	136	
5153	0	134	
5154	0	130	
5155	0	121	
5156	0	121	
5157	0	114	
5158	0	127	
5159	0	132	
5160	0	129	
5161	0	142	
5162	0	154	
5163	0	158	
5164	0	139	
5165	0	124	
5166	0	108	
5167	0	113	
5168	0	107	
5169	0	98	
5170	0	103	
5171	0	110	
5172	0	127	
5173	0	131	
5174	0	120	
5175	0	113	
5176	0	119	
5177	0	140	
5178	0	135	
5179	0	134	
5180	0	150	
5181	0	157	
5182	0	152	
5183	0	138	
5184	0	119	
5185	0	106	
5186	0	94	
5187	0	99	
5188	0	108	
5189	0	117	
5190	0	125	
5191	0	130	
5192	0	139	
5193	0	148	
5194	0	151	
5195	0	143	
5196	0	141	
5197	0	135	
5198	0	133	
5199	0	135	
5200	0	136	
5201	0	131	
5202	0	118	
5203	0	112	
5204	0	113	
5205	0	118	
5206	0	127	
5207	0	138	
5208	0	143	
5209	0	139	
5210	0	136	
5211	0	132	
5212	0	129	
5213	0	132	
5214	0	130	
5215	0	122	
5216	0	120	
5217	0	121	
5218	0	123	
5219	0	122	
5220	0	122	
5221	0	109	
5222	0	110	
5223	0	114	
5224	0	116	
5225	0	121	
5226	0	128	
5227	0	129	
5228	0	133	
5229	0	132	
5230	0	131	
5231	0	124	
5232	0	126	
5233	0	129	
5234	0	129	
5235	0	125	
5236	0	127	
5237	0	135	
5238	0	136	
5239	0	135	
5240	0	136	
5241	0	140	
5242	0	141	
5243	0	145	
5244	0	140	
5245	0	141	
5246	0	124	
5247	0	119	
5248	0	122	
5249	0	123	
5250	0	118	
5251	0	119	
5252	0	119	
5253	0	125	
5254	0	132	
5255	0	127	
5256	0	131	
5257	0	137	
5258	0	134	
5259	0	136	
5260	0	144	
5261	0	146	
5262	0	139	
5263	0	137	
5264	0	130	
5265	0	129	
5266	0	131	
5267	0	142	
5268	0	145	
5269	0	138	
5270	0	129	
5271	0	126	
5272	0	120	
5273	0	110	
5274	0	110	
5275	0	108	
5276	0	113	
5277	0	110	
5278	0	99	
5279	0	105	
5280	0	119	
5281	0	126	
5282	0	130	
5283	0	131	
5284	0	133	
5285	0	135	
5286	0	133	
5287	0	128	
5288	0	128	
5289	0	125	
5290	0	122	
5291	0	123	
5292	0	123	
5293	0	122	
5294	0	120	
5295	0	122	
5296	0	125	
5297	0	127	
5298	0	134	
5299	0	147	
5300	0	147	
5301	0	142	
5302	0	128	
5303	0	116	
5304	0	112	
5305	0	111	
5306	0	122	
5307	0	137	
5308	0	157	
5309	0	163	
5310	0	156	
5311	0	143	
5312	0	118	
5313	0	110	
5314	0	101	
5315	0	102	
5316	0	111	
5317	0	119	
5318	0	129	
5319	0	126	
5320	0	129	
5321	0	131	
5322	0	129	
5323	0	130	
5324	0	135	
5325	0	138	
5326	0	138	
5327	0	136	
5328	0	136	
5329	0	139	
5330	0	133	
5331	0	130	
5332	0	127	
5333	0	124	
5334	0	119	
5335	0	113	
5336	0	104	
5337	0	109	
5338	0	121	
5339	0	133	
5340	0	138	
5341	0	132	
5342	0	131	
5343	0	133	
5344	0	135	
5345	0	133	
5346	0	131	
5347	0	129	
5348	0	124	
5349	0	121	
5350	0	122	
5351	0	124	
5352	0	126	
5353	0	129	
5354	0	129	
5355	0	132	
5356	0	129	
5357	0	127	
5358	0	130	
5359	0	130	
5360	0	129	
5361	0	129	
5362	0	131	
5363	0	130	
5364	0	134	
5365	0	130	
5366	0	129	
5367	0	129	
5368	0	126	
5369	0	128	
5370	0	126	
5371	0	124	
5372	0	122	
5373	0	121	
5374	0	122	
5375	0	119	
5376	0	119	
5377	0	120	
5378	0	129	
5379	0	132	
5380	0	131	
5381	0	128	
5382	0	125	
5383	0	127	
5384	0	130	
5385	0	134	
5386	0	132	
5387	0	131	
5388	0	128	
5389	0	125	
5390	0	122	
5391	0	124	
5392	0	124	
5393	0	124	
5394	0	125	
5395	0	127	
5396	0	127	
5397	0	126	
5398	0	129	
5399	0	134	
5400	0	133	
5401	0	135	
5402	0	129	
5403	0	129	
5404	0	126	
5405	0	124	
5406	0	124	
5407	0	125	
5408	0	130	
5409	0	131	
5410	0	128	
5411	0	125	
5412	0	130	
5413	0	128	
5414	0	128	
5415	0	126	
5416	0	128	
5417	0	127	
5418	0	127	
5419	0	127	
5420	0	127	
5421	0	127	
5422	0	127	
5423	0	128	
5424	0	127	
5425	0	127	
5426	0	130	
5427	0	125	
5428	0	120	
5429	0	122	
5430	0	126	
5431	0	125	
5432	0	121	
5433	0	123	
5434	0	126	
5435	0	130	
5436	0	136	
5437	0	132	
5438	0	132	
5439	0	134	
5440	0	142	
5441	0	145	
5442	0	140	
5443	0	131	
5444	0	114	
5445	0	94	
5446	0	125	
5447	0	138	
5448	0	135	
5449	0	126	
5450	0	123	
5451	0	124	
5452	0	129	
5453	0	135	
5454	0	142	
5455	0	142	
5456	0	137	
5457	0	131	
5458	0	124	
5459	0	118	
5460	0	116	
5461	0	119	
5462	0	119	
5463	0	123	
5464	0	129	
5465	0	124	
5466	0	120	
5467	0	118	
5468	0	122	
5469	0	125	
5470	0	122	
5471	0	128	
5472	0	125	
5473	0	125	
5474	0	127	
5475	0	126	
5476	0	124	
5477	0	123	
5478	0	125	
5479	0	131	
5480	0	136	
5481	0	135	
5482	0	144	
5483	0	147	
5484	0	134	
5485	0	112	
5486	0	114	
5487	0	106	
5488	0	118	
5489	0	138	
5490	0	157	
5491	0	154	
5492	0	157	
5493	0	157	
5494	0	144	
5495	0	150	
5496	0	145	
5497	0	103	
5498	0	77	
5499	0	65	
5500	0	92	
5501	0	99	
5502	0	96	
5503	0	103	
5504	0	123	
5505	0	134	
5506	0	133	
5507	0	141	
5508	0	141	
5509	0	138	
5510	0	130	
5511	0	121	
5512	0	115	
5513	0	119	
5514	0	118	
5515	0	122	
5516	0	119	
5517	0	89	
5518	0	75	
5519	0	105	
5520	0	136	
5521	0	156	
5522	0	158	
5523	0	138	
5524	0	144	
5525	0	143	
5526	0	154	
5527	0	139	
5528	0	133	
5529	0	133	
5530	0	132	
5531	0	135	
5532	0	143	
5533	0	138	
5534	0	139	
5535	0	138	
5536	0	142	
5537	0	146	
5538	0	144	
5539	0	145	
5540	0	143	
5541	0	132	
5542	0	131	
5543	0	126	
5544	0	125	
5545	0	123	
5546	0	117	
5547	0	112	
5548	0	116	
5549	0	118	
5550	0	117	
5551	0	114	
5552	0	120	
5553	0	134	
5554	0	138	
5555	0	138	
5556	0	132	
5557	0	134	
5558	0	127	
5559	0	125	
5560	0	124	
5561	0	118	
5562	0	117	
5563	0	121	
5564	0	120	
5565	0	122	
5566	0	120	
5567	0	118	
5568	0	114	
5569	0	114	
5570	0	117	
5571	0	123	
5572	0	127	
5573	0	135	
5574	0	140	
5575	0	139	
5576	0	141	
5577	0	139	
5578	0	133	
5579	0	126	
5580	0	123	
5581	0	124	
5582	0	138	
5583	0	138	
5584	0	137	
5585	0	143	
5586	0	144	
5587	0	144	
5588	0	137	
5589	0	128	
5590	0	136	
5591	0	136	
5592	0	127	
5593	0	129	
5594	0	125	
5595	0	125	
5596	0	119	
5597	0	123	
5598	0	120	
5599	0	115	
5600	0	109	
5601	0	109	
5602	0	112	
5603	0	115	
5604	0	121	
5605	0	135	
5606	0	140	
5607	0	131	
5608	0	125	
5609	0	125	
5610	0	131	
5611	0	139	
5612	0	139	
5613	0	137	
5614	0	130	
5615	0	129	
5616	0	126	
5617	0	122	
5618	0	121	
5619	0	128	
5620	0	131	
5621	0	129	
5622	0	117	
5623	0	123	
5624	0	142	
5625	0	144	
5626	0	141	
5627	0	131	
5628	0	128	
5629	0	126	
5630	0	127	
5631	0	128	
5632	0	127	
5633	0	124	
5634	0	124	
5635	0	124	
5636	0	121	
5637	0	122	
5638	0	126	
5639	0	127	
5640	0	125	
5641	0	121	
5642	0	125	
5643	0	131	
5644	0	136	
5645	0	135	
5646	0	135	
5647	0	127	
5648	0	121	
5649	0	123	
5650	0	122	
5651	0	129	
5652	0	131	
5653	0	125	
5654	0	109	
5655	0	112	
5656	0	106	
5657	0	105	
5658	0	117	
5659	0	122	
5660	0	116	
5661	0	116	
5662	0	120	
5663	0	132	
5664	0	157	
5665	0	159	
5666	0	148	
5667	0	141	
5668	0	135	
5669	0	141	
5670	0	152	
5671	0	149	
5672	0	142	
5673	0	129	
5674	0	119	
5675	0	117	
5676	0	118	
5677	0	121	
5678	0	114	
5679	0	117	
5680	0	117	
5681	0	117	
5682	0	119	
5683	0	121	
5684	0	122	
5685	0	128	
5686	0	137	
5687	0	134	
5688	0	127	
5689	0	139	
5690	0	139	
5691	0	135	
5692	0	135	
5693	0	132	
5694	0	128	
5695	0	125	
5696	0	124	
5697	0	127	
5698	0	128	
5699	0	131	
5700	0	126	
5701	0	126	
5702	0	125	
5703	0	127	
5704	0	125	
5705	0	119	
5706	0	123	
5707	0	120	
5708	0	124	
5709	0	127	
5710	0	124	
5711	0	126	
5712	0	127	
5713	0	130	
5714	0	127	
5715	0	128	
5716	0	125	
5717	0	130	
5718	0	124	
5719	0	124	
5720	0	125	
5721	0	133	
5722	0	135	
5723	0	139	
5724	0	144	
5725	0	136	
5726	0	135	
5727	0	129	
5728	0	123	
5729	0	121	
5730	0	125	
5731	0	131	
5732	0	130	
5733	0	130	
5734	0	136	
5735	0	132	
5736	0	126	
5737	0	120	
5738	0	118	
5739	0	116	
5740	0	112	
5741	0	113	
5742	0	116	
5743	0	117	
5744	0	119	
5745	0	123	
5746	0	129	
5747	0	131	
5748	0	129	
5749	0	129	
5750	0	129	
5751	0	132	
5752	0	129	
5753	0	124	
5754	0	127	
5755	0	126	
5756	0	120	
5757	0	115	
5758	0	123	
5759	0	126	
5760	0	128	
5761	0	129	
5762	0	131	
5763	0	132	
5764	0	139	
5765	0	138	
5766	0	136	
5767	0	136	
5768	0	134	
5769	0	129	
5770	0	128	
5771	0	134	
5772	0	135	
5773	0	131	
5774	0	130	
5775	0	133	
5776	0	127	
5777	0	128	
5778	0	130	
5779	0	133	
5780	0	127	
5781	0	125	
5782	0	125	
5783	0	128	
5784	0	128	
5785	0	123	
5786	0	120	
5787	0	118	
5788	0	120	
5789	0	126	
5790	0	129	
5791	0	128	
5792	0	132	
5793	0	131	
5794	0	130	
5795	0	127	
5796	0	124	
5797	0	126	
5798	0	119	
5799	0	122	
5800	0	124	
5801	0	129	
5802	0	131	
5803	0	126	
5804	0	124	
5805	0	122	
5806	0	126	
5807	0	130	
5808	0	125	
5809	0	125	
5810	0	131	
5811	0	133	
5812	0	136	
5813	0	131	
5814	0	132	
5815	0	131	
5816	0	133	
5817	0	126	
5818	0	121	
5819	0	120	
5820	0	125	
5821	0	130	
5822	0	131	
5823	0	133	
5824	0	131	
5825	0	126	
5826	0	124	
5827	0	124	
5828	0	126	
5829	0	127	
5830	0	129	
5831	0	132	
5832	0	133	
5833	0	130	
5834	0	128	
5835	0	129	
5836	0	129	
5837	0	130	
5838	0	129	
5839	0	130	
5840	0	128	
5841	0	129	
5842	0	128	
5843	0	130	
5844	0	129	
5845	0	130	
5846	0	125	
5847	0	126	
5848	0	126	
5849	0	123	
5850	0	120	
5851	0	123	
5852	0	127	
5853	0	129	
5854	0	125	
5855	0	126	
5856	0	128	
5857	0	126	
5858	0	126	
5859	0	127	
5860	0	125	
5861	0	125	
5862	0	125	
5863	0	126	
5864	0	128	
5865	0	128	
5866	0	128	
5867	0	122	
5868	0	124	
5869	0	125	
5870	0	126	
5871	0	128	
5872	0	127	
5873	0	126	
5874	0	125	
5875	0	126	
5876	0	128	
5877	0	131	
5878	0	130	
5879	0	125	
5880	0	128	
5881	0	127	
5882	0	131	
5883	0	130	
5884	0	133	
5885	0	132	
5886	0	129	
5887	0	130	
5888	0	127	
5889	0	129	
5890	0	129	
5891	0	128	
5892	0	128	
5893	0	130	
5894	0	129	
5895	0	128	
5896	0	127	
5897	0	129	
5898	0	128	
5899	0	128	
5900	0	124	
5901	0	125	
5902	0	128	
5903	0	130	
5904	0	132	
5905	0	128	
5906	0	127	
5907	0	124	
5908	0	124	
5909	0	127	
5910	0	125	
5911	0	128	
5912	0	127	
5913	0	125	
5914	0	123	
5915	0	125	
5916	0	130	
5917	0	131	
5918	0	132	
5919	0	131	
5920	0	129	
5921	0	127	
5922	0	125	
5923	0	125	
5924	0	129	
5925	0	128	
5926	0	127	
5927	0	132	
5928	0	131	
5929	0	127	
5930	0	129	
5931	0	129	
5932	0	127	
5933	0	126	
5934	0	128	
5935	0	127	
5936	0	128	
5937	0	129	
5938	0	128	
5939	0	127	
5940	0	127	
5941	0	127	
5942	0	127	
5943	0	130	
5944	0	132	
5945	0	128	
5946	0	126	
5947	0	123	
5948	0	122	
5949	0	124	
5950	0	122	
5951	0	123	
5952	0	125	
5953	0	127	
5954	0	128	
5955	0	129	
5956	0	126	
5957	0	125	
5958	0	124	
5959	0	124	
5960	0	123	
5961	0	127	
5962	0	129	
5963	0	127	
5964	0	128	
5965	0	133	
5966	0	133	
5967	0	131	
5968	0	134	
5969	0	135	
5970	0	126	
5971	0	128	
5972	0	129	
5973	0	126	
5974	0	126	
5975	0	129	
5976	0	128	
5977	0	129	
5978	0	129	
5979	0	125	
5980	0	122	
5981	0	120	
5982	0	123	
5983	0	125	
5984	0	127	
5985	0	128	
5986	0	131	
5987	0	135	
5988	0	133	
5989	0	130	
5990	0	129	
5991	0	126	
5992	0	125	
5993	0	128	
5994	0	129	
5995	0	128	
5996	0	130	
5997	0	127	
5998	0	128	
5999	0	129	
6000	0	128	
6001	0	126	
6002	0	125	
6003	0	128	
6004	0	125	
6005	0	125	
6006	0	126	
6007	0	130	
6008	0	128	
6009	0	126	
6010	0	124	
6011	0	125	
6012	0	128	
6013	0	132	
6014	0	130	
6015	0	129	
6016	0	129	
6017	0	130	
6018	0	131	
6019	0	131	
6020	0	127	
6021	0	124	
6022	0	128	
6023	0	126	
6024	0	124	
6025	0	127	
6026	0	127	
6027	0	129	
6028	0	125	
6029	0	130	
6030	0	130	
6031	0	130	
6032	0	128	
6033	0	124	
6034	0	124	
6035	0	124	
6036	0	124	
6037	0	127	
6038	0	127	
6039	0	128	
6040	0	129	
6041	0	129	
6042	0	131	
6043	0	132	
6044	0	133	
6045	0	129	
6046	0	133	
6047	0	133	
6048	0	127	
6049	0	123	
6050	0	123	
6051	0	124	
6052	0	128	
6053	0	130	
6054	0	125	
6055	0	124	
6056	0	121	
6057	0	127	
6058	0	131	
6059	0	131	
6060	0	130	
6061	0	129	
6062	0	127	
6063	0	126	
6064	0	125	
6065	0	129	
6066	0	131	
6067	0	127	
6068	0	125	
6069	0	126	
6070	0	128	
6071	0	128	
6072	0	126	
6073	0	128	
6074	0	128	
6075	0	127	
6076	0	121	
6077	0	123	
6078	0	124	
6079	0	129	
6080	0	125	
6081	0	127	
6082	0	129	
6083	0	131	
6084	0	131	
6085	0	127	
6086	0	130	
6087	0	128	
6088	0	125	
6089	0	123	
6090	0	123	
6091	0	127	
6092	0	132	
6093	0	131	
6094	0	127	
6095	0	124	
6096	0	130	
6097	0	129	
6098	0	129	
6099	0	128	
6100	0	128	
6101	0	129	
6102	0	127	
6103	0	128	
6104	0	128	
6105	0	128	
6106	0	129	
6107	0	126	
6108	0	127	
6109	0	126	
6110	0	127	
6111	0	127	
6112	0	126	
6113	0	131	
6114	0	125	
6115	0	127	
6116	0	126	
6117	0	125	
6118	0	127	
6119	0	128	
6120	0	128	
6121	0	128	
6122	0	129	
6123	0	128	
6124	0	126	
6125	0	128	
6126	0	129	
6127	0	130	
6128	0	126	
6129	0	126	
6130	0	132	
6131	0	131	
6132	0	130	
6133	0	129	
6134	0	128	
6135	0	126	
6136	0	126	
6137	0	127	
6138	0	128	
6139	0	129	
6140	0	129	
6141	0	126	
6142	0	126	
6143	0	128	
6144	0	127	
6145	0	128	
6146	0	130	
6147	0	131	
6148	0	126	
6149	0	127	
6150	0	127	
6151	0	133	
6152	0	130	
6153	0	126	
6154	0	123	
6155	0	125	
6156	0	129	
6157	0	127	
6158	0	124	
6159	0	125	
6160	0	126	
6161	0	128	
6162	0	131	
6163	0	131	
6164	0	132	
6165	0	130	
6166	0	126	
6167	0	126	
6168	0	122	
6169	0	128	
6170	0	128	
6171	0	127	
6172	0	125	
6173	0	126	
6174	0	128	
6175	0	130	
6176	0	128	
6177	0	131	
6178	0	128	
6179	0	129	
6180	0	129	
6181	0	127	
6182	0	127	
6183	0	127	
6184	0	122	
6185	0	121	
6186	0	124	
6187	0	127	
6188	0	126	
6189	0	127	
6190	0	129	
6191	0	127	
6192	0	128	
6193	0	131	
6194	0	131	
6195	0	129	
6196	0	131	
6197	0	135	
6198	0	132	
6199	0	131	
6200	0	128	
6201	0	126	
6202	0	122	
6203	0	127	
6204	0	127	
6205	0	123	
6206	0	124	
6207	0	125	
6208	0	126	
6209	0	124	
6210	0	128	
6211	0	129	
6212	0	127	
6213	0	129	
6214	0	131	
6215	0	132	
6216	0	131	
6217	0	131	
6218	0	124	
6219	0	125	
6220	0	125	
6221	0	128	
6222	0	128	
6223	0	125	
6224	0	128	
6225	0	126	
6226	0	125	
6227	0	126	
6228	0	125	
6229	0	126	
6230	0	126	
6231	0	126	
6232	0	126	
6233	0	127	
6234	0	131	
6235	0	129	
6236	0	132	
6237	0	130	
6238	0	131	
6239	0	130	
6240	0	127	
6241	0	125	
6242	0	124	
6243	0	128	
6244	0	132	
6245	0	128	
6246	0	127	
6247	0	127	
6248	0	126	
6249	0	129	
6250	0	126	
6251	0	128	
6252	0	128	
6253	0	128	
6254	0	127	
6255	0	128	
6256	0	128	
6257	0	126	
6258	0	125	
6259	0	125	
6260	0	125	
6261	0	124	
6262	0	125	
6263	0	127	
6264	0	129	
6265	0	131	
6266	0	128	
6267	0	127	
6268	0	128	
6269	0	126	
6270	0	127	
6271	0	127	
6272	0	128	
6273	0	129	
6274	0	128	
6275	0	126	
6276	0	125	
6277	0	123	
6278	0	126	
6279	0	127	
6280	0	129	
6281	0	127	
6282	0	131	
6283	0	131	
6284	0	129	
6285	0	128	
6286	0	131	
6287	0	131	
6288	0	129	
6289	0	128	
6290	0	127	
6291	0	127	
6292	0	130	
6293	0	127	
6294	0	125	
6295	0	124	
6296	0	128	
6297	0	125	
6298	0	127	
6299	0	127	
6300	0	130	
6301	0	126	
6302	0	128	
6303	0	128	
6304	0	124	
6305	0	124	
6306	0	124	
6307	0	125	
6308	0	126	
6309	0	129	
6310	0	128	
6311	0	129	
6312	0	134	
6313	0	135	
6314	0	131	
6315	0	131	
6316	0	128	
6317	0	121	
6318	0	121	
6319	0	123	
6320	0	122	
6321	0	122	
6322	0	125	
6323	0	129	
6324	0	128	
6325	0	132	
6326	0	132	
6327	0	131	
6328	0	128	
6329	0	125	
6330	0	129	
6331	0	123	
6332	0	126	
6333	0	127	
6334	0	131	
6335	0	128	
6336	0	128	
6337	0	132	
6338	0	131	
6339	0	129	
6340	0	128	
6341	0	128	
6342	0	126	
6343	0	130	
6344	0	129	
6345	0	130	
6346	0	133	
6347	0	131	
6348	0	130	
6349	0	129	
6350	0	128	
6351	0	129	
6352	0	127	
6353	0	133	
6354	0	132	
6355	0	134	
6356	0	132	
6357	0	128	
6358	0	124	
6359	0	121	
6360	0	123	
6361	0	123	
6362	0	125	
6363	0	125	
6364	0	126	
6365	0	126	
6366	0	126	
6367	0	129	
6368	0	126	
6369	0	131	
6370	0	127	
6371	0	125	
6372	0	123	
6373	0	128	
6374	0	129	
6375	0	126	
6376	0	128	
6377	0	127	
6378	0	127	
6379	0	131	
6380	0	127	
6381	0	129	
6382	0	131	
6383	0	127	
6384	0	128	
6385	0	130	
6386	0	130	
6387	0	127	
6388	0	123	
6389	0	123	
6390	0	125	
6391	0	127	
6392	0	126	
6393	0	128	
6394	0	129	
6395	0	129	
6396	0	127	
6397	0	124	
6398	0	126	
6399	0	133	
6400	0	127	
6401	0	121	
6402	0	135	
6403	0	133	
6404	0	121	
6405	0	122	
6406	0	119	
6407	0	123	
6408	0	125	
6409	0	123	
6410	0	121	
6411	0	126	
6412	0	130	
6413	0	131	
6414	0	130	
6415	0	131	
6416	0	137	
6417	0	134	
6418	0	136	
6419	0	133	
6420	0	140	
6421	0	141	
6422	0	133	
6423	0	131	
6424	0	126	
6425	0	126	
6426	0	127	
6427	0	126	
6428	0	126	
6429	0	125	
6430	0	121	
6431	0	123	
6432	0	129	
6433	0	127	
6434	0	124	
6435	0	124	
6436	0	124	
6437	0	129	
6438	0	128	
6439	0	130	
6440	0	128	
6441	0	124	
6442	0	126	
6443	0	126	
6444	0	127	
6445	0	130	
6446	0	128	
6447	0	129	
6448	0	128	
6449	0	123	
6450	0	122	
6451	0	124	
6452	0	129	
6453	0	140	
6454	0	136	
6455	0	131	
6456	0	130	
6457	0	127	
6458	0	126	
6459	0	130	
6460	0	128	
6461	0	127	
6462	0	129	
6463	0	125	
6464	0	124	
6465	0	125	
6466	0	125	
6467	0	123	
6468	0	123	
6469	0	125	
6470	0	126	
6471	0	126	
6472	0	127	
6473	0	130	
6474	0	128	
6475	0	130	
6476	0	127	
6477	0	127	
6478	0	127	
6479	0	128	
6480	0	129	
6481	0	125	
6482	0	124	
6483	0	128	
6484	0	128	
6485	0	129	
6486	0	127	
6487	0	129	
6488	0	129	
6489	0	129	
6490	0	128	
6491	0	127	
6492	0	128	
6493	0	126	
6494	0	126	
6495	0	126	
6496	0	124	
6497	0	128	
6498	0	129	
6499	0	128	
6500	0	129	
6501	0	129	
6502	0	127	
6503	0	131	
6504	0	127	
6505	0	127	
6506	0	127	
6507	0	128	
6508	0	126	
6509	0	127	
6510	0	130	
6511	0	128	
6512	0	126	
6513	0	132	
6514	0	130	
6515	0	127	
6516	0	131	
6517	0	127	
6518	0	125	
6519	0	128	
6520	0	129	
6521	0	128	
6522	0	128	
6523	0	125	
6524	0	124	
6525	0	125	
6526	0	128	
6527	0	126	
6528	0	129	
6529	0	127	
6530	0	128	
6531	0	130	
6532	0	128	
6533	0	128	
6534	0	127	
6535	0	127	
6536	0	127	
6537	0	128	
6538	0	128	
6539	0	128	
6540	0	129	
6541	0	128	
6542	0	125	
6543	0	126	
6544	0	128	
6545	0	128	
6546	0	129	
6547	0	130	
6548	0	130	
6549	0	128	
6550	0	127	
6551	0	127	
6552	0	121	
6553	0	124	
6554	0	126	
6555	0	126	
6556	0	125	
6557	0	129	
6558	0	128	
6559	0	128	
6560	0	129	
6561	0	131	
6562	0	129	
6563	0	127	
6564	0	127	
6565	0	131	
6566	0	130	
6567	0	131	
6568	0	132	
6569	0	129	
6570	0	126	
6571	0	128	
6572	0	128	
6573	0	128	
6574	0	127	
6575	0	125	
6576	0	123	
6577	0	124	
6578	0	126	
6579	0	129	
6580	0	126	
6581	0	128	
6582	0	125	
6583	0	125	
6584	0	126	
6585	0	127	
6586	0	126	
6587	0	127	
6588	0	127	
6589	0	126	
6590	0	129	
6591	0	128	
6592	0	128	
6593	0	128	
6594	0	126	
6595	0	128	
6596	0	125	
6597	0	127	
6598	0	131	
6599	0	130	
6600	0	128	
6601	0	130	
6602	0	128	
6603	0	127	
6604	0	128	
6605	0	127	
6606	0	126	
6607	0	127	
6608	0	129	
6609	0	129	
6610	0	129	
6611	0	128	
6612	0	128	
6613	0	128	
6614	0	132	
6615	0	135	
6616	0	126	
6617	0	128	
6618	0	131	
6619	0	129	
6620	0	126	
6621	0	122	
6622	0	126	
6623	0	128	
6624	0	126	
6625	0	124	
6626	0	123	
6627	0	128	
6628	0	125	
6629	0	122	
6630	0	125	
6631	0	130	
6632	0	130	
6633	0	128	
6634	0	126	
6635	0	128	
6636	0	127	
6637	0	130	
6638	0	130	
6639	0	130	
6640	0	128	
6641	0	130	
6642	0	129	
6643	0	125	
6644	0	124	
6645	0	127	
6646	0	127	
6647	0	125	
6648	0	125	
6649	0	122	
6650	0	125	
6651	0	132	
6652	0	133	
6653	0	133	
6654	0	132	
6655	0	128	
6656	0	126	
6657	0	126	
6658	0	123	
6659	0	124	
6660	0	123	
6661	0	126	
6662	0	127	
6663	0	130	
6664	0	129	
6665	0	130	
6666	0	130	
6667	0	128	
6668	0	126	
6669	0	123	
6670	0	125	
6671	0	127	
6672	0	130	
6673	0	129	
6674	0	126	
6675	0	128	
6676	0	128	
6677	0	125	
6678	0	126	
6679	0	127	
6680	0	123	
6681	0	125	
6682	0	128	
6683	0	131	
6684	0	129	
6685	0	129	
6686	0	129	
6687	0	128	
6688	0	128	
6689	0	129	
6690	0	129	
6691	0	128	
6692	0	127	
6693	0	131	
6694	0	132	
6695	0	131	
6696	0	131	
6697	0	128	
6698	0	125	
6699	0	125	
6700	0	121	
6701	0	124	
6702	0	126	
6703	0	128	
6704	0	128	
6705	0	128	
6706	0	128	
6707	0	129	
6708	0	127	
6709	0	129	
6710	0	128	
6711	0	130	
6712	0	132	
6713	0	126	
6714	0	127	
6715	0	128	
6716	0	125	
6717	0	124	
6718	0	126	
6719	0	129	
6720	0	127	
6721	0	128	
6722	0	127	
6723	0	129	
6724	0	127	
6725	0	127	
6726	0	127	
6727	0	126	
6728	0	129	
6729	0	130	
6730	0	131	
6731	0	131	
6732	0	131	
6733	0	128	
6734	0	127	
6735	0	126	
6736	0	123	
6737	0	125	
6738	0	128	
6739	0	128	
6740	0	129	
6741	0	127	
6742	0	128	
6743	0	127	
6744	0	127	
6745	0	126	
6746	0	127	
6747	0	127	
6748	0	126	
6749	0	129	
6750	0	131	
6751	0	130	
6752	0	129	
6753	0	124	
6754	0	122	
6755	0	123	
6756	0	124	
6757	0	125	
6758	0	129	
6759	0	125	
6760	0	127	
6761	0	131	
6762	0	130	
6763	0	129	
6764	0	128	
6765	0	127	
6766	0	127	
6767	0	130	
6768	0	128	
6769	0	125	
6770	0	126	
6771	0	128	
6772	0	129	
6773	0	130	
6774	0	128	
6775	0	128	
6776	0	130	
6777	0	129	
6778	0	129	
6779	0	129	
6780	0	128	
6781	0	126	
6782	0	127	
6783	0	126	
6784	0	126	
6785	0	127	
6786	0	127	
6787	0	127	
6788	0	126	
6789	0	125	
6790	0	125	
6791	0	126	
6792	0	128	
6793	0	131	
6794	0	132	
6795	0	131	
6796	0	126	
6797	0	127	
6798	0	125	
6799	0	123	
6800	0	124	
6801	0	128	
6802	0	131	
6803	0	133	
6804	0	126	
6805	0	126	
6806	0	124	
6807	0	124	
6808	0	125	
6809	0	127	
6810	0	127	
6811	0	130	
6812	0	129	
6813	0	127	
6814	0	130	
6815	0	131	
6816	0	129	
6817	0	128	
6818	0	127	
6819	0	127	
6820	0	123	
6821	0	124	
6822	0	126	
6823	0	128	
6824	0	126	
6825	0	126	
6826	0	126	
6827	0	126	
6828	0	127	
6829	0	128	
6830	0	129	
6831	0	128	
6832	0	133	
6833	0	132	
6834	0	131	
6835	0	130	
6836	0	126	
6837	0	127	
6838	0	128	
6839	0	128	
6840	0	129	
6841	0	126	
6842	0	125	
6843	0	128	
6844	0	127	
6845	0	126	
6846	0	127	
6847	0	127	
6848	0	128	
6849	0	129	
6850	0	126	
6851	0	130	
6852	0	129	
6853	0	125	
6854	0	124	
6855	0	129	
6856	0	129	
6857	0	130	
6858	0	132	
6859	0	129	
6860	0	130	
6861	0	126	
6862	0	129	
6863	0	130	
6864	0	129	
6865	0	130	
6866	0	131	
6867	0	133	
6868	0	129	
6869	0	125	
6870	0	126	
6871	0	123	
6872	0	125	
6873	0	126	
6874	0	128	
6875	0	128	
6876	0	127	
6877	0	126	
6878	0	127	
6879	0	127	
6880	0	127	
6881	0	126	
6882	0	122	
6883	0	123	
6884	0	131	
6885	0	135	
6886	0	130	
6887	0	127	
6888	0	128	
6889	0	126	
6890	0	124	
6891	0	126	
6892	0	123	
6893	0	127	
6894	0	115	
6895	0	115	
6896	0	121	
6897	0	124	
6898	0	125	
6899	0	123	
6900	0	124	
6901	0	124	
6902	0	127	
6903	0	133	
6904	0	134	
6905	0	136	
6906	0	135	
6907	0	129	
6908	0	127	
6909	0	129	
6910	0	133	
6911	0	131	
6912	0	134	
6913	0	131	
6914	0	130	
6915	0	129	
6916	0	127	
6917	0	130	
6918	0	132	
6919	0	130	
6920	0	128	
6921	0	123	
6922	0	125	
6923	0	125	
6924	0	125	
6925	0	126	
6926	0	127	
6927	0	129	
6928	0	131	
6929	0	133	
6930	0	127	
6931	0	125	
6932	0	127	
6933	0	130	
6934	0	128	
6935	0	130	
6936	0	127	
6937	0	127	
6938	0	127	
6939	0	125	
6940	0	123	
6941	0	121	
6942	0	125	
6943	0	126	
6944	0	126	
6945	0	126	
6946	0	127	
6947	0	128	
6948	0	132	
6949	0	134	
6950	0	132	
6951	0	129	
6952	0	129	
6953	0	129	
6954	0	136	
6955	0	134	
6956	0	132	
6957	0	127	
6958	0	124	
6959	0	122	
6960	0	122	
6961	0	117	
6962	0	122	
6963	0	129	
6964	0	138	
6965	0	133	
6966	0	131	
6967	0	129	
6968	0	127	
6969	0	127	
6970	0	128	
6971	0	127	
6972	0	127	
6973	0	124	
6974	0	124	
6975	0	125	
6976	0	122	
6977	0	121	
6978	0	125	
6979	0	125	
6980	0	127	
6981	0	126	
6982	0	129	
6983	0	128	
6984	0	129	
6985	0	131	
6986	0	129	
6987	0	130	
6988	0	133	
6989	0	132	
6990	0	129	
6991	0	125	
6992	0	127	
6993	0	133	
6994	0	131	
6995	0	130	
6996	0	129	
6997	0	125	
6998	0	125	
6999	0	126	
7000	0	127	
7001	0	131	
7002	0	125	
7003	0	127	
7004	0	128	
7005	0	128	
7006	0	127	
7007	0	128	
7008	0	126	
7009	0	128	
7010	0	128	
7011	0	128	
7012	0	124	
7013	0	124	
7014	0	126	
7015	0	125	
7016	0	124	
7017	0	127	
7018	0	130	
7019	0	129	
7020	0	127	
7021	0	125	
7022	0	127	
7023	0	129	
7024	0	129	
7025	0	125	
7026	0	124	
7027	0	129	
7028	0	126	
7029	0	125	
7030	0	126	
7031	0	129	
7032	0	131	
7033	0	129	
7034	0	128	
7035	0	128	
7036	0	128	
7037	0	129	
7038	0	128	
7039	0	128	
7040	0	129	
7041	0	126	
7042	0	128	
7043	0	122	
7044	0	125	
7045	0	129	
7046	0	130	
7047	0	130	
7048	0	132	
7049	0	129	
7050	0	127	
7051	0	125	
7052	0	124	
7053	0	127	
7054	0	125	
7055	0	126	
7056	0	127	
7057	0	127	
7058	0	125	
7059	0	124	
7060	0	124	
7061	0	128	
7062	0	128	
7063	0	127	
7064	0	130	
7065	0	129	
7066	0	128	
7067	0	129	
7068	0	132	
7069	0	130	
7070	0	128	
7071	0	125	
7072	0	127	
7073	0	128	
7074	0	129	
7075	0	130	
7076	0	129	
7077	0	130	
7078	0	131	
7079	0	127	
7080	0	124	
7081	0	125	
7082	0	123	
7083	0	124	
7084	0	129	
7085	0	129	
7086	0	126	
7087	0	132	
7088	0	131	
7089	0	128	
7090	0	127	
7091	0	127	
7092	0	128	
7093	0	129	
7094	0	128	
7095	0	127	
7096	0	127	
7097	0	126	
7098	0	121	
7099	0	125	
7100	0	123	
7101	0	121	
7102	0	129	
7103	0	131	
7104	0	134	
7105	0	130	
7106	0	133	
7107	0	133	
7108	0	127	
7109	0	124	
7110	0	128	
7111	0	128	
7112	0	130	
7113	0	124	
7114	0	118	
7115	0	124	
7116	0	122	
7117	0	120	
7118	0	129	
7119	0	128	
7120	0	129	
7121	0	133	
7122	0	135	
7123	0	133	
7124	0	132	
7125	0	132	
7126	0	130	
7127	0	125	
7128	0	128	
7129	0	127	
7130	0	126	
7131	0	127	
7132	0	129	
7133	0	125	
7134	0	130	
7135	0	131	
7136	0	132	
7137	0	128	
7138	0	125	
7139	0	122	
7140	0	124	
7141	0	127	
7142	0	128	
7143	0	125	
7144	0	123	
7145	0	125	
7146	0	128	
7147	0	129	
7148	0	129	
7149	0	128	
7150	0	122	
7151	0	128	
7152	0	127	
7153	0	125	
7154	0	129	
7155	0	129	
7156	0	128	
7157	0	131	
7158	0	128	
7159	0	130	
7160	0	131	
7161	0	128	
7162	0	126	
7163	0	130	
7164	0	129	
7165	0	125	
7166	0	122	
7167	0	123	
7168	0	131	
7169	0	133	
7170	0	130	
7171	0	129	
7172	0	125	
7173	0	126	
7174	0	124	
7175	0	127	
7176	0	126	
7177	0	126	
7178	0	126	
7179	0	126	
7180	0	125	
7181	0	126	
7182	0	126	
7183	0	131	
7184	0	130	
7185	0	131	
7186	0	133	
7187	0	129	
7188	0	129	
7189	0	129	
7190	0	128	
7191	0	125	
7192	0	128	
7193	0	125	
7194	0	126	
7195	0	127	
7196	0	127	
7197	0	128	
7198	0	127	
7199	0	127	
7200	0	126	
7201	0	129	
7202	0	128	
7203	0	130	
7204	0	127	
7205	0	128	
7206	0	128	
7207	0	129	
7208	0	129	
7209	0	129	
7210	0	128	
7211	0	125	
7212	0	129	
7213	0	126	
7214	0	125	
7215	0	127	
7216	0	124	
7217	0	125	
7218	0	129	
7219	0	128	
7220	0	126	
7221	0	132	
7222	0	128	
7223	0	125	
7224	0	127	
7225	0	127	
7226	0	126	
7227	0	128	
7228	0	136	
7229	0	135	
7230	0	129	
7231	0	129	
7232	0	128	
7233	0	131	
7234	0	128	
7235	0	126	
7236	0	126	
7237	0	126	
7238	0	125	
7239	0	128	
7240	0	126	
7241	0	126	
7242	0	129	
7243	0	130	
7244	0	132	
7245	0	130	
7246	0	130	
7247	0	128	
7248	0	127	
7249	0	124	
7250	0	127	
7251	0	126	
7252	0	126	
7253	0	127	
7254	0	125	
7255	0	125	
7256	0	128	
7257	0	127	
7258	0	127	
7259	0	127	
7260	0	125	
7261	0	126	
7262	0	126	
7263	0	126	
7264	0	126	
7265	0	126	
7266	0	126	
7267	0	122	
7268	0	121	
7269	0	117	
7270	0	123	
7271	0	127	
7272	0	130	
7273	0	130	
7274	0	132	
7275	0	129	
7276	0	129	
7277	0	129	
7278	0	126	
7279	0	124	
7280	0	126	
7281	0	130	
7282	0	132	
7283	0	133	
7284	0	130	
7285	0	128	
7286	0	116	
7287	0	115	
7288	0	116	
7289	0	129	
7290	0	138	
7291	0	136	
7292	0	135	
7293	0	138	
7294	0	137	
7295	0	135	
7296	0	136	
7297	0	132	
7298	0	125	
7299	0	126	
7300	0	117	
7301	0	126	
7302	0	130	
7303	0	126	
7304	0	126	
7305	0	126	
7306	0	107	
7307	0	107	
7308	0	115	
7309	0	122	
7310	0	126	
7311	0	128	
7312	0	133	
7313	0	141	
7314	0	144	
7315	0	149	
7316	0	150	
7317	0	144	
7318	0	136	
7319	0	129	
7320	0	128	
7321	0	125	
7322	0	122	
7323	0	119	
7324	0	106	
7325	0	112	
7326	0	124	
7327	0	132	
7328	0	134	
7329	0	133	
7330	0	129	
7331	0	126	
7332	0	124	
7333	0	126	
7334	0	131	
7335	0	127	
7336	0	124	
7337	0	123	
7338	0	126	
7339	0	127	
7340	0	129	
7341	0	129	
7342	0	128	
7343	0	132	
7344	0	131	
7345	0	128	
7346	0	129	
7347	0	124	
7348	0	125	
7349	0	125	
7350	0	124	
7351	0	126	
7352	0	126	
7353	0	126	
7354	0	127	
7355	0	129	
7356	0	128	
7357	0	125	
7358	0	125	
7359	0	125	
7360	0	121	
7361	0	124	
7362	0	130	
7363	0	127	
7364	0	128	
7365	0	129	
7366	0	128	
7367	0	132	
7368	0	130	
7369	0	132	
7370	0	131	
7371	0	130	
7372	0	129	
7373	0	113	
7374	0	102	
7375	0	114	
7376	0	131	
7377	0	139	
7378	0	140	
7379	0	137	
7380	0	137	
7381	0	132	
7382	0	125	
7383	0	124	
7384	0	118	
7385	0	122	
7386	0	125	
7387	0	123	
7388	0	119	
7389	0	118	
7390	0	122	
7391	0	127	
7392	0	133	
7393	0	137	
7394	0	139	
7395	0	138	
7396	0	132	
7397	0	133	
7398	0	133	
7399	0	133	
7400	0	127	
7401	0	128	
7402	0	127	
7403	0	125	
7404	0	126	
7405	0	125	
7406	0	127	
7407	0	130	
7408	0	135	
7409	0	137	
7410	0	133	
7411	0	134	
7412	0	137	
7413	0	134	
7414	0	125	
7415	0	128	
7416	0	110	
7417	0	102	
7418	0	104	
7419	0	109	
7420	0	117	
7421	0	124	
7422	0	128	
7423	0	130	
7424	0	139	
7425	0	131	
7426	0	132	
7427	0	129	
7428	0	127	
7429	0	129	
7430	0	131	
7431	0	134	
7432	0	131	
7433	0	131	
7434	0	134	
7435	0	129	
7436	0	127	
7437	0	128	
7438	0	129	
7439	0	129	
7440	0	128	
7441	0	127	
7442	0	128	
7443	0	127	
7444	0	133	
7445	0	132	
7446	0	133	
7447	0	127	
7448	0	124	
7449	0	121	
7450	0	120	
7451	0	122	
7452	0	121	
7453	0	116	
7454	0	114	
7455	0	117	
7456	0	124	
7457	0	132	
7458	0	135	
7459	0	141	
7460	0	141	
7461	0	125	
7462	0	119	
7463	0	125	
7464	0	137	
7465	0	133	
7466	0	128	
7467	0	114	
7468	0	108	
7469	0	117	
7470	0	133	
7471	0	152	
7472	0	157	
7473	0	151	
7474	0	147	
7475	0	138	
7476	0	129	
7477	0	124	
7478	0	119	
7479	0	121	
7480	0	127	
7481	0	122	
7482	0	123	
7483	0	125	
7484	0	130	
7485	0	127	
7486	0	125	
7487	0	126	
7488	0	134	
7489	0	129	
7490	0	126	
7491	0	146	
7492	0	141	
7493	0	132	
7494	0	120	
7495	0	113	
7496	0	115	
7497	0	129	
7498	0	114	
7499	0	122	
7500	0	113	
7501	0	100	
7502	0	109	
7503	0	153	
7504	0	155	
7505	0	112	
7506	0	76	
7507	0	73	
7508	0	83	
7509	0	92	
7510	0	107	
7511	0	130	
7512	0	129	
7513	0	153	
7514	0	158	
7515	0	158	
7516	0	154	
7517	0	131	
7518	0	144	
7519	0	164	
7520	0	168	
7521	0	160	
7522	0	153	
7523	0	144	
7524	0	135	
7525	0	134	
7526	0	140	
7527	0	136	
7528	0	129	
7529	0	115	
7530	0	113	
7531	0	121	
7532	0	120	
7533	0	118	
7534	0	110	
7535	0	96	
7536	0	106	
7537	0	141	
7538	0	139	
7539	0	121	
7540	0	112	
7541	0	107	
7542	0	97	
7543	0	121	
7544	0	127	
7545	0	144	
7546	0	125	
7547	0	134	
7548	0	116	
7549	0	55	
7550	0	69	
7551	0	85	
7552	0	96	
7553	0	105	
7554	0	111	
7555	0	115	
7556	0	118	
7557	0	121	
7558	0	122	
7559	0	124	
7560	0	125	
7561	0	199	
7562	0	231	
7563	0	203	
7564	0	152	
7565	0	128	
7566	0	115	
7567	0	121	
7568	0	124	
7569	0	132	
7570	0	143	
7571	0	137	
7572	0	128	
7573	0	115	
7574	0	122	
7575	0	126	
7576	0	127	
7577	0	105	
7578	0	109	
7579	0	123	
7580	0	138	
7581	0	156	
7582	0	157	
7583	0	147	
7584	0	133	
7585	0	139	
7586	0	137	
7587	0	139	
7588	0	133	
7589	0	128	
7590	0	122	
7591	0	116	
7592	0	105	
7593	0	111	
7594	0	130	
7595	0	145	
7596	0	149	
7597	0	136	
7598	0	137	
7599	0	150	
7600	0	142	
7601	0	136	
7602	0	130	
7603	0	125	
7604	0	118	
7605	0	116	
7606	0	119	
7607	0	123	
7608	0	126	
7609	0	133	
7610	0	137	
7611	0	131	
7612	0	132	
7613	0	146	
7614	0	145	
7615	0	132	
7616	0	127	
7617	0	101	
7618	0	93	
7619	0	113	
7620	0	129	
7621	0	138	
7622	0	123	
7623	0	114	
7624	0	124	
7625	0	142	
7626	0	145	
7627	0	135	
7628	0	131	
7629	0	130	
7630	0	126	
7631	0	118	
7632	0	116	
7633	0	120	
7634	0	123	
7635	0	120	
7636	0	121	
7637	0	128	
7638	0	129	
7639	0	136	
7640	0	130	
7641	0	143	
7642	0	153	
7643	0	141	
7644	0	122	
7645	0	117	
7646	0	110	
7647	0	114	
7648	0	117	
7649	0	124	
7650	0	110	
7651	0	109	
7652	0	115	
7653	0	120	
7654	0	130	
7655	0	138	
7656	0	133	
7657	0	145	
7658	0	136	
7659	0	122	
7660	0	124	
7661	0	133	
7662	0	139	
7663	0	124	
7664	0	115	
7665	0	116	
7666	0	119	
7667	0	132	
7668	0	130	
7669	0	154	
7670	0	153	
7671	0	148	
7672	0	146	
7673	0	142	
7674	0	140	
7675	0	138	
7676	0	139	
7677	0	143	
7678	0	140	
7679	0	141	
7680	0	133	
7681	0	122	
7682	0	119	
7683	0	140	
7684	0	166	
7685	0	171	
7686	0	146	
7687	0	106	
7688	0	93	
7689	0	96	
7690	0	106	
7691	0	135	
7692	0	121	
7693	0	114	
7694	0	103	
7695	0	100	
7696	0	98	
7697	0	104	
7698	0	131	
7699	0	133	
7700	0	148	
7701	0	169	
7702	0	149	
7703	0	141	
7704	0	132	
7705	0	116	
7706	0	102	
7707	0	91	
7708	0	116	
7709	0	122	
7710	0	138	
7711	0	144	
7712	0	148	
7713	0	127	
7714	0	124	
7715	0	122	
7716	0	121	
7717	0	118	
7718	0	125	
7719	0	114	
7720	0	114	
7721	0	109	
7722	0	99	
7723	0	108	
7724	0	126	
7725	0	138	
7726	0	146	
7727	0	139	
7728	0	133	
7729	0	127	
7730	0	117	
7731	0	118	
7732	0	140	
7733	0	135	
7734	0	126	
7735	0	121	
7736	0	129	
7737	0	130	
7738	0	128	
7739	0	128	
7740	0	129	
7741	0	132	
7742	0	130	
7743	0	129	
7744	0	128	
7745	0	127	
7746	0	130	
7747	0	134	
7748	0	128	
7749	0	129	
7750	0	130	
7751	0	128	
7752	0	133	
7753	0	138	
7754	0	126	
7755	0	117	
7756	0	118	
7757	0	123	
7758	0	122	
7759	0	125	
7760	0	125	
7761	0	130	
7762	0	132	
7763	0	133	
7764	0	127	
7765	0	120	
7766	0	123	
7767	0	127	
7768	0	124	
7769	0	118	
7770	0	109	
7771	0	127	
7772	0	134	
7773	0	128	
7774	0	137	
7775	0	147	
7776	0	141	
7777	0	152	
7778	0	157	
7779	0	154	
7780	0	151	
7781	0	149	
7782	0	149	
7783	0	128	
7784	0	101	
7785	0	116	
7786	0	116	
7787	0	105	
7788	0	96	
7789	0	98	
7790	0	100	
7791	0	114	
7792	0	129	
7793	0	139	
7794	0	148	
7795	0	145	
7796	0	134	
7797	0	130	
7798	0	123	
7799	0	123	
7800	0	125	
7801	0	124	
7802	0	125	
7803	0	127	
7804	0	118	
7805	0	119	
7806	0	128	
7807	0	126	
7808	0	125	
7809	0	126	
7810	0	129	
7811	0	102	
7812	0	112	
7813	0	124	
7814	0	135	
7815	0	145	
7816	0	144	
7817	0	145	
7818	0	134	
7819	0	128	
7820	0	127	
7821	0	129	
7822	0	125	
7823	0	121	
7824	0	124	
7825	0	120	
7826	0	125	
7827	0	127	
7828	0	125	
7829	0	126	
7830	0	119	
7831	0	119	
7832	0	120	
7833	0	120	
7834	0	122	
7835	0	128	
7836	0	142	
7837	0	158	
7838	0	157	
7839	0	143	
7840	0	119	
7841	0	114	
7842	0	142	
7843	0	149	
7844	0	148	
7845	0	137	
7846	0	125	
7847	0	114	
7848	0	112	
7849	0	116	
7850	0	124	
7851	0	126	
7852	0	121	
7853	0	115	
7854	0	116	
7855	0	109	
7856	0	115	
7857	0	117	
7858	0	112	
7859	0	110	
7860	0	108	
7861	0	114	
7862	0	122	
7863	0	131	
7864	0	141	
7865	0	136	
7866	0	141	
7867	0	142	
7868	0	139	
7869	0	140	
7870	0	139	
7871	0	139	
7872	0	141	
7873	0	137	
7874	0	136	
7875	0	133	
7876	0	140	
7877	0	155	
7878	0	156	
7879	0	119	
7880	0	103	
7881	0	103	
7882	0	101	
7883	0	103	
7884	0	112	
7885	0	116	
7886	0	122	
7887	0	129	
7888	0	130	
7889	0	133	
7890	0	134	
7891	0	132	
7892	0	134	
7893	0	132	
7894	0	127	
7895	0	126	
7896	0	121	
7897	0	122	
7898	0	125	
7899	0	125	
7900	0	122	
7901	0	122	
7902	0	122	
7903	0	125	
7904	0	120	
7905	0	125	
7906	0	129	
7907	0	127	
7908	0	131	
7909	0	132	
7910	0	139	
7911	0	137	
7912	0	135	
7913	0	134	
7914	0	127	
7915	0	129	
7916	0	134	
7917	0	129	
7918	0	129	
7919	0	127	
7920	0	125	
7921	0	129	
7922	0	126	
7923	0	128	
7924	0	129	
7925	0	126	
7926	0	130	
7927	0	136	
7928	0	130	
7929	0	126	
7930	0	130	
7931	0	129	
7932	0	132	
7933	0	128	
7934	0	127	
7935	0	131	
7936	0	128	
7937	0	124	
7938	0	127	
7939	0	131	
7940	0	134	
7941	0	129	
7942	0	125	
7943	0	123	
7944	0	121	
7945	0	129	
7946	0	129	
7947	0	128	
7948	0	128	
7949	0	120	
7950	0	118	
7951	0	121	
7952	0	131	
7953	0	131	
7954	0	127	
7955	0	126	
7956	0	127	
7957	0	127	
7958	0	127	
7959	0	129	
7960	0	128	
7961	0	129	
7962	0	124	
7963	0	123	
7964	0	125	
7965	0	122	
7966	0	124	
7967	0	122	
7968	0	121	
7969	0	121	
7970	0	125	
7971	0	120	
7972	0	120	
7973	0	123	
7974	0	127	
7975	0	127	
7976	0	131	
7977	0	135	
7978	0	135	
7979	0	132	
7980	0	129	
7981	0	131	
7982	0	130	
7983	0	130	
7984	0	159	
7985	0	162	
7986	0	154	
7987	0	140	
7988	0	130	
7989	0	127	
7990	0	124	
7991	0	116	
7992	0	123	
7993	0	120	
7994	0	119	
7995	0	110	
7996	0	115	
7997	0	116	
7998	0	123	
7999	0	130	
8000	0	127	
8001	0	126	
8002	0	127	
8003	0	124	
8004	0	120	
8005	0	122	
8006	0	131	
8007	0	131	
8008	0	125	
8009	0	124	
8010	0	123	
8011	0	128	
8012	0	129	
8013	0	128	
8014	0	130	
8015	0	110	
8016	0	106	
8017	0	112	
8018	0	119	
8019	0	128	
8020	0	130	
8021	0	133	
8022	0	132	
8023	0	133	
8024	0	127	
8025	0	130	
8026	0	131	
8027	0	128	
8028	0	127	
8029	0	129	
8030	0	132	
8031	0	136	
8032	0	134	
8033	0	131	
8034	0	124	
8035	0	130	
8036	0	127	
8037	0	134	
8038	0	133	
8039	0	131	
8040	0	128	
8041	0	128	
8042	0	129	
8043	0	123	
8044	0	125	
8045	0	124	
8046	0	124	
8047	0	129	
8048	0	121	
8049	0	123	
8050	0	128	
8051	0	130	
8052	0	133	
8053	0	129	
8054	0	133	
8055	0	130	
8056	0	128	
8057	0	134	
8058	0	130	
8059	0	133	
8060	0	128	
8061	0	130	
8062	0	126	
8063	0	126	
8064	0	126	
8065	0	124	
8066	0	125	
8067	0	128	
8068	0	126	
8069	0	125	
8070	0	126	
8071	0	144	
8072	0	156	
8073	0	148	
8074	0	137	
8075	0	134	
8076	0	131	
8077	0	129	
8078	0	128	
8079	0	126	
8080	0	124	
8081	0	106	
8082	0	104	
8083	0	102	
8084	0	108	
8085	0	119	
8086	0	125	
8087	0	127	
8088	0	128	
8089	0	132	
8090	0	132	
8091	0	127	
8092	0	128	
8093	0	127	
8094	0	127	
8095	0	131	
8096	0	135	
8097	0	133	
8098	0	128	
8099	0	125	
8100	0	125	
8101	0	124	
8102	0	120	
8103	0	118	
8104	0	122	
8105	0	124	
8106	0	130	
8107	0	131	
8108	0	130	
8109	0	132	
8110	0	125	
8111	0	127	
8112	0	124	
8113	0	130	
8114	0	129	
8115	0	131	
8116	0	132	
8117	0	130	
8118	0	128	
8119	0	131	
8120	0	130	
8121	0	127	
8122	0	126	
8123	0	127	
8124	0	127	
8125	0	127	
8126	0	125	
8127	0	128	
8128	0	129	
8129	0	130	
8130	0	132	
8131	0	134	
8132	0	128	
8133	0	126	
8134	0	127	
8135	0	129	
8136	0	129	
8137	0	128	
8138	0	128	
8139	0	125	
8140	0	124	
8141	0	121	
8142	0	121	
8143	0	126	
8144	0	134	
8145	0	132	
8146	0	131	
8147	0	129	
8148	0	128	
8149	0	127	
8150	0	128	
8151	0	127	
8152	0	124	
8153	0	129	
8154	0	125	
8155	0	127	
8156	0	124	
8157	0	129	
8158	0	132	
8159	0	130	
8160	0	128	
8161	0	119	
8162	0	114	
8163	0	117	
8164	0	122	
8165	0	122	
8166	0	127	
8167	0	131	
8168	0	133	
8169	0	135	
8170	0	133	
8171	0	132	
8172	0	126	
8173	0	128	
8174	0	131	
8175	0	131	
8176	0	132	
8177	0	129	
8178	0	126	
8179	0	127	
8180	0	127	
8181	0	124	
8182	0	124	
8183	0	121	
8184	0	128	
8185	0	135	
8186	0	137	
8187	0	131	
8188	0	131	
8189	0	132	
8190	0	132	
8191	0	128	
8192	0	124	
8193	0	130	
8194	0	131	
8195	0	126	
8196	0	126	
8197	0	125	
8198	0	126	
8199	0	126	
8200	0	123	
8201	0	136	
8202	0	150	
8203	0	156	
8204	0	153	
8205	0	139	
8206	0	132	
8207	0	122	
8208	0	123	
8209	0	123	
8210	0	121	
8211	0	119	
8212	0	123	
8213	0	118	
8214	0	121	
8215	0	123	
8216	0	120	
8217	0	119	
8218	0	118	
8219	0	117	
8220	0	124	
8221	0	127	
8222	0	127	
8223	0	121	
8224	0	122	
8225	0	124	
8226	0	126	
8227	0	124	
8228	0	128	
8229	0	128	
8230	0	128	
8231	0	130	
8232	0	125	
8233	0	122	
8234	0	126	
8235	0	125	
8236	0	126	
8237	0	132	
8238	0	129	
8239	0	124	
8240	0	126	
8241	0	126	
8242	0	132	
8243	0	135	
8244	0	133	
8245	0	132	
8246	0	130	
8247	0	131	
8248	0	129	
8249	0	127	
8250	0	125	
8251	0	127	
8252	0	133	
8253	0	130	
8254	0	129	
8255	0	131	
8256	0	127	
8257	0	122	
8258	0	119	
8259	0	125	
8260	0	125	
8261	0	125	
8262	0	122	
8263	0	125	
8264	0	126	
8265	0	132	
8266	0	134	
8267	0	131	
8268	0	129	
8269	0	132	
8270	0	130	
8271	0	130	
8272	0	127	
8273	0	127	
8274	0	131	
8275	0	128	
8276	0	126	
8277	0	128	
8278	0	129	
8279	0	131	
8280	0	135	
8281	0	131	
8282	0	126	
8283	0	127	
8284	0	130	
8285	0	136	
8286	0	131	
8287	0	132	
8288	0	134	
8289	0	132	
8290	0	127	
8291	0	126	
8292	0	121	
8293	0	119	
8294	0	118	
8295	0	122	
8296	0	123	
8297	0	121	
8298	0	121	
8299	0	123	
8300	0	126	
8301	0	124	
8302	0	128	
8303	0	132	
8304	0	130	
8305	0	127	
8306	0	127	
8307	0	126	
8308	0	122	
8309	0	124	
8310	0	125	
8311	0	128	
8312	0	134	
8313	0	134	
8314	0	128	
8315	0	125	
8316	0	125	
8317	0	121	
8318	0	126	
8319	0	129	
8320	0	130	
8321	0	130	
8322	0	127	
8323	0	127	
8324	0	131	
8325	0	130	
8326	0	134	
8327	0	137	
8328	0	135	
8329	0	137	
8330	0	135	
8331	0	134	
8332	0	129	
8333	0	126	
8334	0	128	
8335	0	127	
8336	0	123	
8337	0	125	
8338	0	129	
8339	0	129	
8340	0	125	
8341	0	121	
8342	0	121	
8343	0	124	
8344	0	123	
8345	0	127	
8346	0	125	
8347	0	121	
8348	0	124	
8349	0	127	
8350	0	128	
8351	0	127	
8352	0	125	
8353	0	126	
8354	0	128	
8355	0	128	
8356	0	129	
8357	0	127	
8358	0	125	
8359	0	120	
8360	0	118	
8361	0	121	
8362	0	125	
8363	0	129	
8364	0	127	
8365	0	133	
8366	0	132	
8367	0	129	
8368	0	123	
8369	0	125	
8370	0	130	
8371	0	129	
8372	0	127	
8373	0	123	
8374	0	130	
8375	0	130	
8376	0	136	
8377	0	134	
8378	0	134	
8379	0	130	
8380	0	129	
8381	0	136	
8382	0	135	
8383	0	128	
8384	0	127	
8385	0	131	
8386	0	132	
8387	0	131	
8388	0	126	
8389	0	121	
8390	0	121	
8391	0	123	
8392	0	122	
8393	0	121	
8394	0	122	
8395	0	129	
8396	0	131	
8397	0	131	
8398	0	129	
8399	0	127	
8400	0	131	
8401	0	131	
8402	0	130	
8403	0	134	
8404	0	132	
8405	0	130	
8406	0	126	
8407	0	128	
8408	0	129	
8409	0	130	
8410	0	129	
8411	0	128	
8412	0	125	
8413	0	124	
8414	0	123	
8415	0	123	
8416	0	118	
8417	0	118	
8418	0	131	
8419	0	128	
8420	0	125	
8421	0	129	
8422	0	133	
8423	0	132	
8424	0	127	
8425	0	129	
8426	0	133	
8427	0	128	
8428	0	127	
8429	0	117	
8430	0	124	
8431	0	125	
8432	0	125	
8433	0	126	
8434	0	131	
8435	0	129	
8436	0	129	
8437	0	124	
8438	0	123	
8439	0	128	
8440	0	129	
8441	0	122	
8442	0	122	
8443	0	124	
8444	0	122	
8445	0	124	
8446	0	125	
8447	0	133	
8448	0	132	
8449	0	136	
8450	0	131	
8451	0	127	
8452	0	125	
8453	0	127	
8454	0	128	
8455	0	125	
8456	0	128	
8457	0	126	
8458	0	127	
8459	0	130	
8460	0	133	
8461	0	133	
8462	0	129	
8463	0	131	
8464	0	133	
8465	0	130	
8466	0	130	
8467	0	128	
8468	0	124	
8469	0	123	
8470	0	125	
8471	0	125	
8472	0	129	
8473	0	130	
8474	0	129	
8475	0	129	
8476	0	132	
8477	0	129	
8478	0	123	
8479	0	125	
8480	0	119	
8481	0	124	
8482	0	128	
8483	0	129	
8484	0	125	
8485	0	125	
8486	0	125	
8487	0	130	
8488	0	136	
8489	0	132	
8490	0	131	
8491	0	132	
8492	0	132	
8493	0	130	
8494	0	139	
8495	0	141	
8496	0	133	
8497	0	127	
8498	0	123	
8499	0	121	
8500	0	126	
8501	0	135	
8502	0	132	
8503	0	131	
8504	0	126	
8505	0	126	
8506	0	120	
8507	0	119	
8508	0	121	
8509	0	121	
8510	0	121	
8511	0	123	
8512	0	127	
8513	0	134	
8514	0	135	
8515	0	129	
8516	0	125	
8517	0	127	
8518	0	126	
8519	0	130	
8520	0	128	
8521	0	120	
8522	0	127	
8523	0	127	
8524	0	124	
8525	0	121	
8526	0	128	
8527	0	126	
8528	0	124	
8529	0	126	
8530	0	123	
8531	0	122	
8532	0	125	
8533	0	128	
8534	0	132	
8535	0	132	
8536	0	129	
8537	0	129	
8538	0	124	
8539	0	122	
8540	0	125	
8541	0	126	
8542	0	122	
8543	0	128	
8544	0	131	
8545	0	134	
8546	0	133	
8547	0	131	
8548	0	128	
8549	0	125	
8550	0	123	
8551	0	127	
8552	0	127	
8553	0	125	
8554	0	126	
8555	0	128	
8556	0	133	
8557	0	126	
8558	0	130	
8559	0	129	
8560	0	128	
8561	0	127	
8562	0	130	
8563	0	134	
8564	0	125	
8565	0	118	
8566	0	120	
8567	0	123	
8568	0	125	
8569	0	130	
8570	0	133	
8571	0	134	
8572	0	144	
8573	0	148	
8574	0	151	
8575	0	146	
8576	0	141	
8577	0	127	
8578	0	122	
8579	0	119	
8580	0	111	
8581	0	113	
8582	0	121	
8583	0	125	
8584	0	128	
8585	0	135	
8586	0	135	
8587	0	132	
8588	0	124	
8589	0	118	
8590	0	116	
8591	0	116	
8592	0	122	
8593	0	124	
8594	0	128	
8595	0	134	
8596	0	136	
8597	0	132	
8598	0	124	
8599	0	119	
8600	0	125	
8601	0	131	
8602	0	124	
8603	0	119	
8604	0	114	
8605	0	123	
8606	0	135	
8607	0	140	
8608	0	135	
8609	0	135	
8610	0	135	
8611	0	134	
8612	0	129	
8613	0	128	
8614	0	124	
8615	0	126	
8616	0	130	
8617	0	123	
8618	0	120	
8619	0	121	
8620	0	124	
8621	0	130	
8622	0	126	
8623	0	133	
8624	0	130	
8625	0	130	
8626	0	131	
8627	0	128	
8628	0	125	
8629	0	126	
8630	0	128	
8631	0	129	
8632	0	124	
8633	0	123	
8634	0	125	
8635	0	122	
8636	0	124	
8637	0	125	
8638	0	130	
8639	0	131	
8640	0	131	
8641	0	127	
8642	0	120	
8643	0	118	
8644	0	126	
8645	0	121	
8646	0	117	
8647	0	125	
8648	0	127	
8649	0	125	
8650	0	127	
8651	0	132	
8652	0	134	
8653	0	135	
8654	0	132	
8655	0	130	
8656	0	130	
8657	0	128	
8658	0	132	
8659	0	131	
8660	0	131	
8661	0	126	
8662	0	127	
8663	0	129	
8664	0	133	
8665	0	127	
8666	0	125	
8667	0	125	
8668	0	127	
8669	0	132	
8670	0	130	
8671	0	131	
8672	0	128	
8673	0	122	
8674	0	119	
8675	0	128	
8676	0	130	
8677	0	133	
8678	0	133	
8679	0	130	
8680	0	124	
8681	0	123	
8682	0	124	
8683	0	128	
8684	0	135	
8685	0	130	
8686	0	124	
8687	0	131	
8688	0	125	
8689	0	123	
8690	0	125	
8691	0	130	
8692	0	130	
8693	0	133	
8694	0	134	
8695	0	133	
8696	0	132	
8697	0	132	
8698	0	131	
8699	0	131	
8700	0	132	
8701	0	123	
8702	0	123	
8703	0	125	
8704	0	123	
8705	0	120	
8706	0	127	
8707	0	128	
8708	0	125	
8709	0	123	
8710	0	128	
8711	0	131	
8712	0	128	
8713	0	128	
8714	0	128	
8715	0	129	
8716	0	126	
8717	0	123	
8718	0	129	
8719	0	132	
8720	0	134	
8721	0	130	
8722	0	130	
8723	0	130	
8724	0	126	
8725	0	124	
8726	0	126	
8727	0	125	
8728	0	123	
8729	0	122	
8730	0	123	
8731	0	125	
8732	0	125	
8733	0	123	
8734	0	124	
8735	0	127	
8736	0	125	
8737	0	126	
8738	0	127	
8739	0	131	
8740	0	135	
8741	0	135	
8742	0	131	
8743	0	129	
8744	0	128	
8745	0	127	
8746	0	120	
8747	0	119	
8748	0	123	
8749	0	121	
8750	0	126	
8751	0	126	
8752	0	129	
8753	0	126	
8754	0	129	
8755	0	127	
8756	0	128	
8757	0	127	
8758	0	126	
8759	0	126	
8760	0	131	
8761	0	131	
8762	0	128	
8763	0	130	
8764	0	131	
8765	0	132	
8766	0	137	
8767	0	133	
8768	0	129	
8769	0	127	
8770	0	120	
8771	0	125	
8772	0	128	
8773	0	131	
8774	0	129	
8775	0	133	
8776	0	127	
8777	0	125	
8778	0	121	
8779	0	127	
8780	0	129	
8781	0	129	
8782	0	127	
8783	0	131	
8784	0	128	
8785	0	126	
8786	0	120	
8787	0	120	
8788	0	122	
8789	0	124	
8790	0	124	
8791	0	128	
8792	0	130	
8793	0	136	
8794	0	140	
8795	0	135	
8796	0	135	
8797	0	139	
8798	0	132	
8799	0	127	
8800	0	126	
8801	0	129	
8802	0	130	
8803	0	127	
8804	0	120	
8805	0	121	
8806	0	123	
8807	0	124	
8808	0	124	
8809	0	123	
8810	0	120	
8811	0	118	
8812	0	122	
8813	0	120	
8814	0	127	
8815	0	132	
8816	0	129	
8817	0	128	
8818	0	130	
8819	0	136	
8820	0	134	
8821	0	137	
8822	0	135	
8823	0	129	
8824	0	126	
8825	0	124	
8826	0	127	
8827	0	126	
8828	0	133	
8829	0	135	
8830	0	126	
8831	0	121	
8832	0	121	
8833	0	119	
8834	0	125	
8835	0	126	
8836	0	130	
8837	0	130	
8838	0	128	
8839	0	126	
8840	0	127	
8841	0	129	
8842	0	130	
8843	0	126	
8844	0	126	
8845	0	129	
8846	0	129	
8847	0	127	
8848	0	128	
8849	0	126	
8850	0	122	
8851	0	127	
8852	0	130	
8853	0	132	
8854	0	132	
8855	0	131	
8856	0	128	
8857	0	125	
8858	0	126	
8859	0	126	
8860	0	132	
8861	0	130	
8862	0	126	
8863	0	127	
8864	0	126	
8865	0	120	
8866	0	124	
8867	0	127	
8868	0	125	
8869	0	124	
8870	0	130	
8871	0	131	
8872	0	133	
8873	0	131	
8874	0	127	
8875	0	127	
8876	0	127	
8877	0	128	
8878	0	128	
8879	0	129	
8880	0	130	
8881	0	130	
8882	0	126	
8883	0	123	
8884	0	124	
8885	0	123	
8886	0	124	
8887	0	126	
8888	0	125	
8889	0	128	
8890	0	124	
8891	0	124	
8892	0	125	
8893	0	128	
8894	0	131	
8895	0	132	
8896	0	132	
8897	0	133	
8898	0	131	
8899	0	130	
8900	0	127	
8901	0	124	
8902	0	126	
8903	0	129	
8904	0	131	
8905	0	127	
8906	0	126	
8907	0	124	
8908	0	125	
8909	0	126	
8910	0	126	
8911	0	128	
8912	0	124	
8913	0	126	
8914	0	131	
8915	0	131	
8916	0	129	
8917	0	126	
8918	0	125	
8919	0	128	
8920	0	131	
8921	0	131	
8922	0	131	
8923	0	130	
8924	0	127	
8925	0	127	
8926	0	126	
8927	0	125	
8928	0	125	
8929	0	129	
8930	0	130	
8931	0	128	
8932	0	127	
8933	0	127	
8934	0	127	
8935	0	128	
8936	0	131	
8937	0	129	
8938	0	127	
8939	0	127	
8940	0	128	
8941	0	130	
8942	0	130	
8943	0	126	
8944	0	126	
8945	0	129	
8946	0	128	
8947	0	125	
8948	0	125	
8949	0	125	
8950	0	129	
8951	0	131	
8952	0	128	
8953	0	128	
8954	0	126	
8955	0	125	
8956	0	126	
8957	0	122	
8958	0	128	
8959	0	132	
8960	0	130	
8961	0	128	
8962	0	130	
8963	0	127	
8964	0	127	
8965	0	129	
8966	0	131	
8967	0	130	
8968	0	127	
8969	0	120	
8970	0	122	
8971	0	124	
8972	0	123	
8973	0	125	
8974	0	126	
8975	0	126	
8976	0	125	
8977	0	129	
8978	0	131	
8979	0	130	
8980	0	128	
8981	0	132	
8982	0	131	
8983	0	131	
8984	0	127	
8985	0	123	
8986	0	124	
8987	0	128	
8988	0	131	
8989	0	132	
8990	0	128	
8991	0	126	
8992	0	127	
8993	0	127	
8994	0	125	
8995	0	130	
8996	0	127	
8997	0	128	
8998	0	130	
8999	0	129	
9000	0	127	
9001	0	124	
9002	0	126	
9003	0	128	
9004	0	128	
9005	0	128	
9006	0	132	
9007	0	131	
9008	0	130	
9009	0	124	
9010	0	120	
9011	0	123	
9012	0	127	
9013	0	127	
9014	0	123	
9015	0	123	
9016	0	128	
9017	0	128	
9018	0	128	
9019	0	130	
9020	0	129	
9021	0	129	
9022	0	134	
9023	0	136	
9024	0	133	
9025	0	132	
9026	0	126	
9027	0	127	
9028	0	127	
9029	0	127	
9030	0	130	
9031	0	130	
9032	0	125	
9033	0	124	
9034	0	126	
9035	0	125	
9036	0	128	
9037	0	125	
9038	0	124	
9039	0	127	
9040	0	124	
9041	0	126	
9042	0	127	
9043	0	127	
9044	0	127	
9045	0	125	
9046	0	123	
9047	0	126	
9048	0	125	
9049	0	127	
9050	0	128	
9051	0	130	
9052	0	129	
9053	0	127	
9054	0	128	
9055	0	129	
9056	0	132	
9057	0	130	
9058	0	129	
9059	0	128	
9060	0	128	
9061	0	128	
9062	0	124	
9063	0	129	
9064	0	129	
9065	0	129	
9066	0	130	
9067	0	128	
9068	0	129	
9069	0	130	
9070	0	127	
9071	0	129	
9072	0	128	
9073	0	128	
9074	0	127	
9075	0	123	
9076	0	125	
9077	0	123	
9078	0	126	
9079	0	126	
9080	0	127	
9081	0	124	
9082	0	128	
9083	0	131	
9084	0	134	
9085	0	134	
9086	0	128	
9087	0	123	
9088	0	125	
9089	0	128	
9090	0	125	
9091	0	127	
9092	0	128	
9093	0	132	
9094	0	129	
9095	0	124	
9096	0	126	
9097	0	128	
9098	0	126	
9099	0	125	
9100	0	123	
9101	0	128	
9102	0	128	
9103	0	124	
9104	0	131	
9105	0	135	
9106	0	132	
9107	0	128	
9108	0	127	
9109	0	126	
9110	0	123	
9111	0	127	
9112	0	128	
9113	0	128	
9114	0	125	
9115	0	125	
9116	0	126	
9117	0	128	
9118	0	130	
9119	0	125	
9120	0	124	
9121	0	127	
9122	0	127	
9123	0	123	
9124	0	128	
9125	0	131	
9126	0	130	
9127	0	124	
9128	0	126	
9129	0	129	
9130	0	132	
9131	0	131	
9132	0	130	
9133	0	129	
9134	0	129	
9135	0	127	
9136	0	130	
9137	0	127	
9138	0	125	
9139	0	123	
9140	0	125	
9141	0	126	
9142	0	127	
9143	0	127	
9144	0	127	
9145	0	126	
9146	0	130	
9147	0	132	
9148	0	125	
9149	0	124	
9150	0	122	
9151	0	123	
9152	0	121	
9153	0	123	
9154	0	123	
9155	0	122	
9156	0	128	
9157	0	129	
9158	0	127	
9159	0	125	
9160	0	125	
9161	0	129	
9162	0	128	
9163	0	129	
9164	0	129	
9165	0	132	
9166	0	132	
9167	0	131	
9168	0	131	
9169	0	131	
9170	0	130	
9171	0	129	
9172	0	128	
9173	0	130	
9174	0	132	
9175	0	136	
9176	0	134	
9177	0	128	
9178	0	127	
9179	0	128	
9180	0	127	
9181	0	129	
9182	0	127	
9183	0	124	
9184	0	126	
9185	0	127	
9186	0	126	
9187	0	129	
9188	0	129	
9189	0	131	
9190	0	128	
9191	0	123	
9192	0	123	
9193	0	128	
9194	0	128	
9195	0	124	
9196	0	129	
9197	0	126	
9198	0	129	
9199	0	128	
9200	0	125	
9201	0	120	
9202	0	122	
9203	0	124	
9204	0	128	
9205	0	132	
9206	0	133	
9207	0	133	
9208	0	131	
9209	0	130	
9210	0	131	
9211	0	126	
9212	0	122	
9213	0	121	
9214	0	125	
9215	0	126	
9216	0	125	
9217	0	122	
9218	0	125	
9219	0	127	
9220	0	126	
9221	0	127	
9222	0	125	
9223	0	126	
9224	0	124	
9225	0	127	
9226	0	132	
9227	0	132	
9228	0	129	
9229	0	126	
9230	0	131	
9231	0	132	
9232	0	129	
9233	0	127	
9234	0	127	
9235	0	127	
9236	0	132	
9237	0	132	
9238	0	128	
9239	0	128	
9240	0	129	
9241	0	128	
9242	0	129	
9243	0	129	
9244	0	131	
9245	0	133	
9246	0	132	
9247	0	127	
9248	0	126	
9249	0	126	
9250	0	128	
9251	0	129	
9252	0	129	
9253	0	128	
9254	0	126	
9255	0	128	
9256	0	125	
9257	0	125	
9258	0	127	
9259	0	128	
9260	0	128	
9261	0	128	
9262	0	131	
9263	0	128	
9264	0	125	
9265	0	122	
9266	0	121	
9267	0	123	
9268	0	129	
9269	0	131	
9270	0	130	
9271	0	126	
9272	0	122	
9273	0	121	
9274	0	128	
9275	0	128	
9276	0	131	
9277	0	131	
9278	0	127	
9279	0	125	
9280	0	127	
9281	0	125	
9282	0	121	
9283	0	123	
9284	0	131	
9285	0	133	
9286	0	133	
9287	0	133	
9288	0	130	
9289	0	130	
9290	0	130	
9291	0	130	
9292	0	126	
9293	0	125	
9294	0	128	
9295	0	129	
9296	0	129	
9297	0	127	
9298	0	129	
9299	0	132	
9300	0	130	
9301	0	132	
9302	0	127	
9303	0	126	
9304	0	125	
9305	0	124	
9306	0	128	
9307	0	131	
9308	0	129	
9309	0	132	
9310	0	131	
9311	0	126	
9312	0	128	
9313	0	125	
9314	0	125	
9315	0	126	
9316	0	126	
9317	0	123	
9318	0	127	
9319	0	128	
9320	0	126	
9321	0	125	
9322	0	128	
9323	0	127	
9324	0	126	
9325	0	124	
9326	0	124	
9327	0	124	
9328	0	124	
9329	0	125	
9330	0	130	
9331	0	131	
9332	0	130	
9333	0	130	
9334	0	126	
9335	0	128	
9336	0	125	
9337	0	127	
9338	0	127	
9339	0	123	
9340	0	122	
9341	0	125	
9342	0	127	
9343	0	130	
9344	0	132	
9345	0	132	
9346	0	130	
9347	0	129	
9348	0	128	
9349	0	128	
9350	0	131	
9351	0	126	
9352	0	123	
9353	0	124	
9354	0	127	
9355	0	131	
9356	0	129	
9357	0	127	
9358	0	125	
9359	0	130	
9360	0	130	
9361	0	131	
9362	0	129	
9363	0	124	
9364	0	124	
9365	0	127	
9366	0	128	
9367	0	132	
9368	0	134	
9369	0	132	
9370	0	131	
9371	0	127	
9372	0	126	
9373	0	125	
9374	0	125	
9375	0	123	
9376	0	126	
9377	0	127	
9378	0	129	
9379	0	129	
9380	0	125	
9381	0	124	
9382	0	125	
9383	0	128	
9384	0	130	
9385	0	128	
9386	0	129	
9387	0	128	
9388	0	127	
9389	0	127	
9390	0	122	
9391	0	121	
9392	0	127	
9393	0	129	
9394	0	128	
9395	0	132	
9396	0	129	
9397	0	128	
9398	0	129	
9399	0	129	
9400	0	126	
9401	0	125	
9402	0	128	
9403	0	129	
9404	0	129	
9405	0	129	
9406	0	128	
9407	0	129	
9408	0	129	
9409	0	130	
9410	0	127	
9411	0	123	
9412	0	130	
9413	0	129	
9414	0	124	
9415	0	127	
9416	0	125	
9417	0	130	
9418	0	131	
9419	0	133	
9420	0	132	
9421	0	132	
9422	0	128	
9423	0	130	
9424	0	126	
9425	0	125	
9426	0	122	
9427	0	122	
9428	0	123	
9429	0	125	
9430	0	131	
9431	0	128	
9432	0	128	
9433	0	128	
9434	0	129	
9435	0	126	
9436	0	127	
9437	0	129	
9438	0	127	
9439	0	128	
9440	0	130	
9441	0	128	
9442	0	127	
9443	0	125	
9444	0	127	
9445	0	129	
9446	0	126	
9447	0	128	
9448	0	132	
9449	0	129	
9450	0	131	
9451	0	127	
9452	0	126	
9453	0	124	
9454	0	125	
9455	0	124	
9456	0	125	
9457	0	128	
9458	0	125	
9459	0	129	
9460	0	125	
9461	0	127	
9462	0	129	
9463	0	133	
9464	0	130	
9465	0	132	
9466	0	130	
9467	0	132	
9468	0	129	
9469	0	126	
9470	0	125	
9471	0	125	
9472	0	127	
9473	0	126	
9474	0	125	
9475	0	130	
9476	0	127	
9477	0	130	
9478	0	134	
9479	0	132	
9480	0	130	
9481	0	126	
9482	0	122	
9483	0	122	
9484	0	126	
9485	0	125	
9486	0	126	
9487	0	126	
9488	0	126	
9489	0	128	
9490	0	129	
9491	0	125	
9492	0	129	
9493	0	135	
9494	0	131	
9495	0	130	
9496	0	130	
9497	0	130	
9498	0	133	
9499	0	131	
9500	0	132	
9501	0	132	
9502	0	129	
9503	0	120	
9504	0	126	
9505	0	137	
9506	0	136	
9507	0	132	
9508	0	128	
9509	0	126	
9510	0	122	
9511	0	119	
9512	0	122	
9513	0	119	
9514	0	112	
9515	0	116	
9516	0	119	
9517	0	123	
9518	0	122	
9519	0	121	
9520	0	124	
9521	0	130	
9522	0	129	
9523	0	127	
9524	0	128	
9525	0	131	
9526	0	129	
9527	0	130	
9528	0	131	
9529	0	132	
9530	0	131	
9531	0	132	
9532	0	132	
9533	0	132	
9534	0	127	
9535	0	123	
9536	0	126	
9537	0	130	
9538	0	131	
9539	0	127	
9540	0	127	
9541	0	125	
9542	0	126	
9543	0	130	
9544	0	127	
9545	0	128	
9546	0	130	
9547	0	126	
9548	0	126	
9549	0	128	
9550	0	129	
9551	0	128	
9552	0	129	
9553	0	127	
9554	0	129	
9555	0	126	
9556	0	127	
9557	0	125	
9558	0	124	
9559	0	128	
9560	0	132	
9561	0	132	
9562	0	126	
9563	0	126	
9564	0	125	
9565	0	127	
9566	0	125	
9567	0	129	
9568	0	129	
9569	0	130	
9570	0	127	
9571	0	129	
9572	0	126	
9573	0	126	
9574	0	129	
9575	0	127	
9576	0	128	
9577	0	129	
9578	0	129	
9579	0	128	
9580	0	129	
9581	0	129	
9582	0	128	
9583	0	128	
9584	0	128	
9585	0	128	
9586	0	128	
9587	0	127	
9588	0	126	
9589	0	125	
9590	0	128	
9591	0	127	
9592	0	130	
9593	0	130	
9594	0	132	
9595	0	130	
9596	0	131	
9597	0	129	
9598	0	129	
9599	0	126	
9600	0	123	
9601	0	122	
9602	0	121	
9603	0	123	
9604	0	124	
9605	0	128	
9606	0	131	
9607	0	131	
9608	0	126	
9609	0	124	
9610	0	126	
9611	0	126	
9612	0	128	
9613	0	131	
9614	0	133	
9615	0	128	
9616	0	132	
9617	0	126	
9618	0	124	
9619	0	126	
9620	0	124	
9621	0	125	
9622	0	129	
9623	0	129	
9624	0	129	
9625	0	128	
9626	0	128	
9627	0	133	
9628	0	132	
9629	0	132	
9630	0	134	
9631	0	134	
9632	0	134	
9633	0	130	
9634	0	126	
9635	0	123	
9636	0	123	
9637	0	123	
9638	0	125	
9639	0	125	
9640	0	125	
9641	0	126	
9642	0	126	
9643	0	125	
9644	0	132	
9645	0	130	
9646	0	128	
9647	0	127	
9648	0	128	
9649	0	124	
9650	0	123	
9651	0	127	
9652	0	128	
9653	0	132	
9654	0	131	
9655	0	125	
9656	0	125	
9657	0	129	
9658	0	125	
9659	0	123	
9660	0	126	
9661	0	126	
9662	0	125	
9663	0	127	
9664	0	126	
9665	0	129	
9666	0	131	
9667	0	129	
9668	0	133	
9669	0	132	
9670	0	129	
9671	0	131	
9672	0	132	
9673	0	132	
9674	0	131	
9675	0	130	
9676	0	126	
9677	0	124	
9678	0	124	
9679	0	127	
9680	0	127	
9681	0	123	
9682	0	126	
9683	0	126	
9684	0	125	
9685	0	124	
9686	0	126	
9687	0	124	
9688	0	127	
9689	0	129	
9690	0	126	
9691	0	127	
9692	0	124	
9693	0	125	
9694	0	127	
9695	0	128	
9696	0	130	
9697	0	130	
9698	0	128	
9699	0	124	
9700	0	122	
9701	0	128	
9702	0	129	
9703	0	128	
9704	0	127	
9705	0	128	
9706	0	128	
9707	0	127	
9708	0	128	
9709	0	129	
9710	0	128	
9711	0	122	
9712	0	127	
9713	0	131	
9714	0	131	
9715	0	130	
9716	0	131	
9717	0	131	
9718	0	127	
9719	0	126	
9720	0	129	
9721	0	128	
9722	0	130	
9723	0	131	
9724	0	129	
9725	0	124	
9726	0	124	
9727	0	126	
9728	0	128	
9729	0	132	
9730	0	125	
9731	0	125	
9732	0	126	
9733	0	129	
9734	0	131	
9735	0	129	
9736	0	123	
9737	0	124	
9738	0	122	
9739	0	123	
9740	0	125	
9741	0	126	
9742	0	130	
9743	0	128	
9744	0	127	
9745	0	127	
9746	0	128	
9747	0	128	
9748	0	129	
9749	0	128	
9750	0	129	
9751	0	128	
9752	0	129	
9753	0	127	
9754	0	128	
9755	0	127	
9756	0	124	
9757	0	122	
9758	0	129	
9759	0	130	
9760	0	129	
9761	0	130	
9762	0	126	
9763	0	126	
9764	0	126	
9765	0	126	
9766	0	127	
9767	0	128	
9768	0	127	
9769	0	129	
9770	0	129	
9771	0	130	
9772	0	131	
9773	0	131	
9774	0	127	
9775	0	124	
9776	0	125	
9777	0	128	
9778	0	130	
9779	0	131	
9780	0	131	
9781	0	129	
9782	0	134	
9783	0	133	
9784	0	128	
9785	0	125	
9786	0	126	
9787	0	123	
9788	0	126	
9789	0	125	
9790	0	126	
9791	0	129	
9792	0	127	
9793	0	126	
9794	0	129	
9795	0	132	
9796	0	128	
9797	0	127	
9798	0	126	
9799	0	126	
9800	0	124	
9801	0	126	
9802	0	130	
9803	0	132	
9804	0	130	
9805	0	129	
9806	0	130	
9807	0	125	
9808	0	128	
9809	0	125	
9810	0	127	
9811	0	127	
9812	0	126	
9813	0	131	
9814	0	126	
9815	0	127	
9816	0	129	
9817	0	126	
9818	0	127	
9819	0	125	
9820	0	125	
9821	0	126	
9822	0	129	
9823	0	129	
9824	0	126	
9825	0	126	
9826	0	129	
9827	0	130	
9828	0	128	
9829	0	129	
9830	0	129	
9831	0	128	
9832	0	123	
9833	0	127	
9834	0	128	
9835	0	125	
9836	0	126	
9837	0	129	
9838	0	128	
9839	0	131	
9840	0	133	
9841	0	128	
9842	0	130	
9843	0	131	
9844	0	134	
9845	0	132	
9846	0	127	
9847	0	145	
9848	0	148	
9849	0	142	
9850	0	132	
9851	0	128	
9852	0	124	
9853	0	120	
9854	0	117	
9855	0	120	
9856	0	121	
9857	0	125	
9858	0	125	
9859	0	124	
9860	0	124	
9861	0	124	
9862	0	124	
9863	0	122	
9864	0	121	
9865	0	121	
9866	0	122	
9867	0	127	
9868	0	127	
9869	0	125	
9870	0	122	
9871	0	124	
9872	0	129	
9873	0	130	
9874	0	131	
9875	0	132	
9876	0	130	
9877	0	131	
9878	0	129	
9879	0	128	
9880	0	129	
9881	0	127	
9882	0	130	
9883	0	125	
9884	0	126	
9885	0	123	
9886	0	124	
9887	0	125	
9888	0	126	
9889	0	128	
9890	0	128	
9891	0	128	
9892	0	129	
9893	0	132	
9894	0	131	
9895	0	130	
9896	0	129	
9897	0	126	
9898	0	128	
9899	0	129	
9900	0	130	
9901	0	128	
9902	0	128	
9903	0	126	
9904	0	123	
9905	0	129	
9906	0	130	
9907	0	127	
9908	0	125	
9909	0	128	
9910	0	127	
9911	0	122	
9912	0	126	
9913	0	128	
9914	0	127	
9915	0	127	
9916	0	128	
9917	0	126	
9918	0	126	
9919	0	129	
9920	0	129	
9921	0	130	
9922	0	129	
9923	0	130	
9924	0	128	
9925	0	128	
9926	0	127	
9927	0	127	
9928	0	125	
9929	0	126	
9930	0	127	
9931	0	126	
9932	0	127	
9933	0	131	
9934	0	130	
9935	0	135	
9936	0	135	
9937	0	131	
9938	0	130	
9939	0	126	
9940	0	125	
9941	0	125	
9942	0	127	
9943	0	125	
9944	0	125	
9945	0	126	
9946	0	126	
9947	0	126	
9948	0	126	
9949	0	126	
9950	0	129	
9951	0	126	
9952	0	126	
9953	0	126	
9954	0	127	
9955	0	127	
9956	0	129	
9957	0	128	
9958	0	129	
9959	0	131	
9960	0	130	
9961	0	129	
9962	0	126	
9963	0	126	
9964	0	125	
9965	0	127	
9966	0	129	
9967	0	129	
9968	0	127	
9969	0	130	
9970	0	130	
9971	0	128	
9972	0	127	
9973	0	124	
9974	0	127	
9975	0	123	
9976	0	126	
9977	0	125	
9978	0	125	
9979	0	126	
9980	0	126	
9981	0	127	
9982	0	127	
9983	0	129	
9984	0	130	
9985	0	127	
9986	0	128	
9987	0	129	
9988	0	128	
9989	0	128	
9990	0	129	
9991	0	131	
9992	0	130	
9993	0	127	
9994	0	129	
9995	0	127	
9996	0	125	
9997	0	126	
9998	0	128	
9999	0	128	
10000	0	127	
10001	0	126	
10002	0	127	
10003	0	128	
10004	0	127	
10005	0	128	
10006	0	126	
10007	0	125	
10008	0	124	
10009	0	124	
10010	0	127	
10011	0	128	
10012	0	126	
10013	0	128	
10014	0	132	
10015	0	133	
10016	0	131	
10017	0	128	
10018	0	128	
10019	0	127	
10020	0	127	
10021	0	125	
10022	0	124	
10023	0	122	
10024	0	121	
10025	0	123	
10026	0	127	
10027	0	132	
10028	0	134	
10029	0	130	
10030	0	129	
10031	0	130	
10032	0	130	
10033	0	129	
10034	0	130	
10035	0	127	
10036	0	126	
10037	0	126	
10038	0	125	
10039	0	126	
10040	0	129	
10041	0	130	
10042	0	129	
10043	0	131	
10044	0	128	
10045	0	126	
10046	0	125	
10047	0	126	
10048	0	126	
