# OpenSignals Text File Format. Version 1
# {"00:07:80:4D:2E:9E": {"position": 0, "device": "biosignalsplux", "device name": "00:07:80:4D:2E:9E", "device connection": "BTH00:07:80:4D:2E:9E", "sampling rate": 1000, "resolution": [16], "firmware version": 774, "comments": "", "keywords": "", "mode": 0, "sync interval": 2, "date": "2020-7-9", "time": "18:6:38.940", "channels": [1], "sensor": ["EMG"], "label": ["CH1"], "column": ["nSeq", "DI", "CH1"], "special": [{}], "digital IO": [0, 1]}}
# EndOfHeader
0	0	32636	
1	0	32648	
2	0	32620	
3	0	32596	
4	0	32716	
5	0	32736	
6	0	32840	
7	0	32872	
8	0	32796	
9	0	32880	
10	0	32860	
11	0	32808	
12	0	32852	
13	0	32848	
14	0	32901	
15	0	32836	
16	0	32840	
17	0	32772	
18	0	32764	
19	0	32696	
20	0	32704	
21	0	32648	
22	0	32662	
23	0	32601	
24	0	32720	
25	0	32756	
26	0	32804	
27	0	32790	
28	0	32788	
29	0	32826	
30	0	32840	
31	0	32932	
32	0	32908	
33	0	32878	
34	0	32904	
35	0	32869	
36	0	32900	
37	0	32856	
38	0	32945	
39	0	32852	
40	0	32680	
41	0	32516	
42	0	32448	
43	0	32562	
44	0	32742	
45	0	32724	
46	0	32712	
47	0	32708	
48	0	32740	
49	0	32808	
50	0	32860	
51	0	32821	
52	0	32780	
53	0	32856	
54	0	32924	
55	0	32868	
56	0	32848	
57	0	32800	
58	0	32798	
59	0	32852	
60	0	32752	
61	0	32676	
62	0	32664	
63	0	32660	
64	0	32760	
65	0	32724	
66	0	32792	
67	0	32876	
68	0	32796	
69	0	32820	
70	0	32816	
71	0	32880	
72	0	32842	
73	0	32840	
74	0	32865	
75	0	32910	
76	0	32830	
77	0	32760	
78	0	32748	
79	0	32756	
80	0	32724	
81	0	32646	
82	0	32660	
83	0	32556	
84	0	32700	
85	0	32740	
86	0	32740	
87	0	32800	
88	0	32744	
89	0	32872	
90	0	32872	
91	0	32903	
92	0	32892	
93	0	32836	
94	0	32872	
95	0	32864	
96	0	32724	
97	0	32748	
98	0	32656	
99	0	32684	
100	0	32752	
101	0	32716	
102	0	32644	
103	0	32656	
104	0	32680	
105	0	32688	
106	0	32761	
107	0	32804	
108	0	32878	
109	0	32896	
110	0	32820	
111	0	32844	
112	0	32860	
113	0	32784	
114	0	32900	
115	0	32856	
116	0	32756	
117	0	32848	
118	0	32784	
119	0	32792	
120	0	32628	
121	0	32576	
122	0	32700	
123	0	32744	
124	0	32732	
125	0	32644	
126	0	32716	
127	0	32780	
128	0	32893	
129	0	32912	
130	0	32912	
131	0	32864	
132	0	32832	
133	0	32896	
134	0	32848	
135	0	32932	
136	0	32896	
137	0	32740	
138	0	32757	
139	0	32732	
140	0	32752	
141	0	32608	
142	0	32580	
143	0	32632	
144	0	32776	
145	0	32780	
146	0	32940	
147	0	32980	
148	0	32824	
149	0	32726	
150	0	32596	
151	0	32733	
152	0	32732	
153	0	32658	
154	0	32840	
155	0	32804	
156	0	32868	
157	0	32908	
158	0	32840	
159	0	32804	
160	0	32780	
161	0	32632	
162	0	32676	
163	0	32652	
164	0	32680	
165	0	32802	
166	0	32816	
167	0	32856	
168	0	32812	
169	0	32756	
170	0	32836	
171	0	32852	
172	0	32844	
173	0	32900	
174	0	32900	
175	0	32890	
176	0	32804	
177	0	32724	
178	0	32780	
179	0	32824	
180	0	32720	
181	0	32637	
182	0	32608	
183	0	32628	
184	0	32694	
185	0	32688	
186	0	32748	
187	0	32772	
188	0	32769	
189	0	32805	
190	0	32840	
191	0	32828	
192	0	32900	
193	0	32864	
194	0	32964	
195	0	32996	
196	0	32868	
197	0	32756	
198	0	32769	
199	0	32716	
200	0	32672	
201	0	32584	
202	0	32557	
203	0	32550	
204	0	32622	
205	0	32652	
206	0	32736	
207	0	32732	
208	0	32800	
209	0	32758	
210	0	32820	
211	0	32863	
212	0	32844	
213	0	32848	
214	0	32942	
215	0	32888	
216	0	32880	
217	0	32792	
218	0	32766	
219	0	32764	
220	0	32720	
221	0	32656	
222	0	32608	
223	0	32673	
224	0	32686	
225	0	32660	
226	0	32709	
227	0	32792	
228	0	32765	
229	0	32904	
230	0	32872	
231	0	32840	
232	0	32876	
233	0	32888	
234	0	32904	
235	0	32940	
236	0	32838	
237	0	32784	
238	0	32748	
239	0	32776	
240	0	32704	
241	0	32728	
242	0	32648	
243	0	32680	
244	0	32716	
245	0	32708	
246	0	32740	
247	0	32800	
248	0	32852	
249	0	32844	
250	0	32852	
251	0	32852	
252	0	32826	
253	0	32828	
254	0	32896	
255	0	32960	
256	0	32862	
257	0	32796	
258	0	32752	
259	0	32773	
260	0	32668	
261	0	32665	
262	0	32612	
263	0	32724	
264	0	32748	
265	0	32696	
266	0	32856	
267	0	32840	
268	0	32812	
269	0	32784	
270	0	32848	
271	0	32832	
272	0	32876	
273	0	32848	
274	0	32920	
275	0	32944	
276	0	32860	
277	0	32794	
278	0	32776	
279	0	32740	
280	0	32652	
281	0	32676	
282	0	32640	
283	0	32644	
284	0	32654	
285	0	32758	
286	0	32784	
287	0	32928	
288	0	32829	
289	0	32820	
290	0	32760	
291	0	32756	
292	0	32889	
293	0	32880	
294	0	32924	
295	0	32920	
296	0	32864	
297	0	32788	
298	0	32736	
299	0	32752	
300	0	32650	
301	0	32604	
302	0	32600	
303	0	32612	
304	0	32677	
305	0	32744	
306	0	32780	
307	0	32760	
308	0	32848	
309	0	32745	
310	0	32788	
311	0	32832	
312	0	32884	
313	0	32908	
314	0	32868	
315	0	32980	
316	0	32908	
317	0	32824	
318	0	32668	
319	0	32701	
320	0	32692	
321	0	32660	
322	0	32584	
323	0	32616	
324	0	32676	
325	0	32692	
326	0	32780	
327	0	32848	
328	0	32772	
329	0	32820	
330	0	32876	
331	0	32880	
332	0	32854	
333	0	32802	
334	0	32932	
335	0	32868	
336	0	32852	
337	0	32780	
338	0	32728	
339	0	32688	
340	0	32664	
341	0	32672	
342	0	32684	
343	0	32590	
344	0	32628	
345	0	32776	
346	0	32792	
347	0	32804	
348	0	32876	
349	0	32808	
350	0	32860	
351	0	32825	
352	0	32888	
353	0	32896	
354	0	33032	
355	0	33032	
356	0	32816	
357	0	32684	
358	0	32540	
359	0	32608	
360	0	32660	
361	0	32616	
362	0	32552	
363	0	32540	
364	0	32688	
365	0	32772	
366	0	32774	
367	0	32836	
368	0	32804	
369	0	32816	
370	0	32880	
371	0	32900	
372	0	32912	
373	0	32840	
374	0	32948	
375	0	32974	
376	0	32868	
377	0	32808	
378	0	32780	
379	0	32736	
380	0	32724	
381	0	32632	
382	0	32668	
383	0	32764	
384	0	32708	
385	0	32604	
386	0	32590	
387	0	32708	
388	0	32780	
389	0	32852	
390	0	32872	
391	0	32864	
392	0	32886	
393	0	32904	
394	0	32920	
395	0	32868	
396	0	32920	
397	0	32784	
398	0	32768	
399	0	32788	
400	0	32708	
401	0	32600	
402	0	32656	
403	0	32584	
404	0	32684	
405	0	32728	
406	0	32716	
407	0	32808	
408	0	32776	
409	0	32822	
410	0	32832	
411	0	32812	
412	0	32836	
413	0	32892	
414	0	32948	
415	0	33012	
416	0	32864	
417	0	32808	
418	0	32750	
419	0	32744	
420	0	32716	
421	0	32636	
422	0	32596	
423	0	32580	
424	0	32688	
425	0	32748	
426	0	32785	
427	0	32748	
428	0	32816	
429	0	32804	
430	0	32836	
431	0	32824	
432	0	32844	
433	0	32850	
434	0	32940	
435	0	32992	
436	0	32928	
437	0	32790	
438	0	32744	
439	0	32761	
440	0	32704	
441	0	32584	
442	0	32604	
443	0	32544	
444	0	32676	
445	0	32800	
446	0	32740	
447	0	32656	
448	0	32812	
449	0	32768	
450	0	32832	
451	0	32788	
452	0	32804	
453	0	32832	
454	0	32920	
455	0	32948	
456	0	32900	
457	0	32836	
458	0	32800	
459	0	32768	
460	0	32680	
461	0	32660	
462	0	32660	
463	0	32612	
464	0	32708	
465	0	32748	
466	0	32834	
467	0	32848	
468	0	32852	
469	0	32860	
470	0	32824	
471	0	32856	
472	0	32828	
473	0	32869	
474	0	32880	
475	0	32917	
476	0	32844	
477	0	32712	
478	0	32744	
479	0	32736	
480	0	32712	
481	0	32696	
482	0	32612	
483	0	32628	
484	0	32685	
485	0	32680	
486	0	32793	
487	0	32740	
488	0	32869	
489	0	32840	
490	0	32812	
491	0	32880	
492	0	32824	
493	0	32836	
494	0	32952	
495	0	32916	
496	0	32840	
497	0	32757	
498	0	32750	
499	0	32756	
500	0	32736	
501	0	32654	
502	0	32592	
503	0	32608	
504	0	32684	
505	0	32708	
506	0	32832	
507	0	32840	
508	0	32828	
509	0	32848	
510	0	32828	
511	0	32745	
512	0	32917	
513	0	32932	
514	0	32980	
515	0	32887	
516	0	32876	
517	0	32816	
518	0	32780	
519	0	32616	
520	0	32648	
521	0	32577	
522	0	32604	
523	0	32584	
524	0	32688	
525	0	32692	
526	0	32741	
527	0	32852	
528	0	32836	
529	0	32972	
530	0	32872	
531	0	32808	
532	0	32720	
533	0	32740	
534	0	32760	
535	0	32904	
536	0	32884	
537	0	32832	
538	0	32792	
539	0	32720	
540	0	32736	
541	0	32660	
542	0	32570	
543	0	32588	
544	0	32700	
545	0	32744	
546	0	32748	
547	0	32812	
548	0	32781	
549	0	32837	
550	0	32838	
551	0	32848	
552	0	32876	
553	0	32877	
554	0	32908	
555	0	32912	
556	0	32880	
557	0	32832	
558	0	32732	
559	0	32732	
560	0	32668	
561	0	32656	
562	0	32652	
563	0	32656	
564	0	32697	
565	0	32720	
566	0	32783	
567	0	32736	
568	0	32784	
569	0	32752	
570	0	32786	
571	0	32832	
572	0	32884	
573	0	32945	
574	0	32976	
575	0	32896	
576	0	32868	
577	0	32824	
578	0	32775	
579	0	32740	
580	0	32680	
581	0	32704	
582	0	32620	
583	0	32628	
584	0	32661	
585	0	32773	
586	0	32800	
587	0	32758	
588	0	32732	
589	0	32760	
590	0	32792	
591	0	32788	
592	0	32845	
593	0	32870	
594	0	32886	
595	0	32928	
596	0	32900	
597	0	32828	
598	0	32777	
599	0	32760	
600	0	32692	
601	0	32604	
602	0	32641	
603	0	32608	
604	0	32688	
605	0	32761	
606	0	32760	
607	0	32780	
608	0	32800	
609	0	32812	
610	0	32794	
611	0	32932	
612	0	32852	
613	0	32868	
614	0	32916	
615	0	32940	
616	0	32828	
617	0	32772	
618	0	32804	
619	0	32720	
620	0	32732	
621	0	32612	
622	0	32608	
623	0	32608	
624	0	32690	
625	0	32680	
626	0	32812	
627	0	32824	
628	0	32876	
629	0	32844	
630	0	32764	
631	0	32876	
632	0	32925	
633	0	32852	
634	0	32950	
635	0	32912	
636	0	32768	
637	0	32728	
638	0	32665	
639	0	32677	
640	0	32624	
641	0	32620	
642	0	32656	
643	0	32621	
644	0	32680	
645	0	32825	
646	0	32760	
647	0	32833	
648	0	32837	
649	0	32868	
650	0	32864	
651	0	32892	
652	0	32916	
653	0	32878	
654	0	32968	
655	0	32984	
656	0	32948	
657	0	32742	
658	0	32812	
659	0	32764	
660	0	32656	
661	0	32668	
662	0	32652	
663	0	32604	
664	0	32644	
665	0	32672	
666	0	32744	
667	0	32788	
668	0	32737	
669	0	32800	
670	0	32768	
671	0	32852	
672	0	32848	
673	0	32800	
674	0	32912	
675	0	32888	
676	0	32880	
677	0	32780	
678	0	32812	
679	0	32768	
680	0	32680	
681	0	32576	
682	0	32496	
683	0	32577	
684	0	32684	
685	0	32736	
686	0	32852	
687	0	32846	
688	0	32992	
689	0	32908	
690	0	32764	
691	0	32709	
692	0	32884	
693	0	32840	
694	0	32928	
695	0	32988	
696	0	32860	
697	0	32780	
698	0	32704	
699	0	32600	
700	0	32584	
701	0	32620	
702	0	32660	
703	0	32637	
704	0	32702	
705	0	32792	
706	0	32800	
707	0	32852	
708	0	32879	
709	0	32837	
710	0	32852	
711	0	32877	
712	0	32868	
713	0	32876	
714	0	32932	
715	0	32868	
716	0	32832	
717	0	32712	
718	0	32724	
719	0	32676	
720	0	32614	
721	0	32564	
722	0	32612	
723	0	32584	
724	0	32684	
725	0	32728	
726	0	32812	
727	0	32796	
728	0	32912	
729	0	32952	
730	0	33156	
731	0	32988	
732	0	32676	
733	0	32492	
734	0	32680	
735	0	32808	
736	0	32868	
737	0	32816	
738	0	32832	
739	0	32630	
740	0	32628	
741	0	32648	
742	0	32700	
743	0	32692	
744	0	32692	
745	0	32724	
746	0	32804	
747	0	32836	
748	0	32764	
749	0	32780	
750	0	32832	
751	0	32804	
752	0	32977	
753	0	32844	
754	0	32952	
755	0	32936	
756	0	32852	
757	0	32772	
758	0	32740	
759	0	32716	
760	0	32736	
761	0	32636	
762	0	32648	
763	0	32624	
764	0	32702	
765	0	32712	
766	0	32888	
767	0	32936	
768	0	32853	
769	0	32762	
770	0	32684	
771	0	32790	
772	0	32832	
773	0	32924	
774	0	32984	
775	0	32900	
776	0	32908	
777	0	32836	
778	0	32796	
779	0	32812	
780	0	32628	
781	0	32637	
782	0	32600	
783	0	32637	
784	0	32728	
785	0	32716	
786	0	32765	
787	0	32760	
788	0	32868	
789	0	32884	
790	0	32884	
791	0	32876	
792	0	32808	
793	0	32880	
794	0	32868	
795	0	32876	
796	0	32912	
797	0	32896	
798	0	32836	
799	0	32768	
800	0	32608	
801	0	32576	
802	0	32604	
803	0	32668	
804	0	32724	
805	0	32696	
806	0	32704	
807	0	32764	
808	0	32805	
809	0	32808	
810	0	32864	
811	0	32814	
812	0	32896	
813	0	32884	
814	0	32900	
815	0	32920	
816	0	32860	
817	0	32830	
818	0	32816	
819	0	32764	
820	0	32696	
821	0	32620	
822	0	32592	
823	0	32590	
824	0	32732	
825	0	32744	
826	0	32788	
827	0	32808	
828	0	32820	
829	0	32840	
830	0	32836	
831	0	32764	
832	0	32812	
833	0	32869	
834	0	32912	
835	0	32988	
836	0	32872	
837	0	32804	
838	0	32636	
839	0	32676	
840	0	32736	
841	0	32644	
842	0	32608	
843	0	32668	
844	0	32677	
845	0	32676	
846	0	32820	
847	0	32780	
848	0	32840	
849	0	32896	
850	0	32896	
851	0	32848	
852	0	32853	
853	0	32864	
854	0	32920	
855	0	32780	
856	0	32844	
857	0	32733	
858	0	32748	
859	0	32861	
860	0	32728	
861	0	32640	
862	0	32552	
863	0	32606	
864	0	32684	
865	0	32728	
866	0	32808	
867	0	32844	
868	0	32813	
869	0	32732	
870	0	32832	
871	0	32848	
872	0	32860	
873	0	32928	
874	0	32908	
875	0	32936	
876	0	32869	
877	0	32784	
878	0	32734	
879	0	32774	
880	0	32676	
881	0	32656	
882	0	32620	
883	0	32644	
884	0	32648	
885	0	32744	
886	0	32832	
887	0	32820	
888	0	32872	
889	0	32752	
890	0	32704	
891	0	32764	
892	0	32765	
893	0	32832	
894	0	32908	
895	0	32956	
896	0	32900	
897	0	32840	
898	0	32740	
899	0	32708	
900	0	32698	
901	0	32672	
902	0	32589	
903	0	32472	
904	0	32548	
905	0	32672	
906	0	32734	
907	0	32744	
908	0	32760	
909	0	32884	
910	0	32849	
911	0	32864	
912	0	32968	
913	0	32948	
914	0	32896	
915	0	32920	
916	0	32868	
917	0	32816	
918	0	32796	
919	0	32784	
920	0	32748	
921	0	32620	
922	0	32660	
923	0	32656	
924	0	32708	
925	0	32792	
926	0	32784	
927	0	32733	
928	0	32804	
929	0	32744	
930	0	32804	
931	0	32813	
932	0	32877	
933	0	32869	
934	0	32896	
935	0	32908	
936	0	32796	
937	0	32856	
938	0	32805	
939	0	32736	
940	0	32720	
941	0	32672	
942	0	32616	
943	0	32685	
944	0	32772	
945	0	32652	
946	0	32680	
947	0	32696	
948	0	32748	
949	0	32761	
950	0	32852	
951	0	32836	
952	0	32876	
953	0	32920	
954	0	32872	
955	0	32892	
956	0	32804	
957	0	32764	
958	0	32728	
959	0	32708	
960	0	32712	
961	0	32628	
962	0	32628	
963	0	32640	
964	0	32784	
965	0	32840	
966	0	32780	
967	0	32744	
968	0	32764	
969	0	32732	
970	0	32768	
971	0	32788	
972	0	32800	
973	0	32900	
974	0	32892	
975	0	32932	
976	0	32824	
977	0	32808	
978	0	32864	
979	0	32832	
980	0	32640	
981	0	32676	
982	0	32548	
983	0	32524	
984	0	32489	
985	0	32672	
986	0	32760	
987	0	32782	
988	0	32800	
989	0	32836	
990	0	32876	
991	0	32872	
992	0	32926	
993	0	32920	
994	0	32960	
995	0	32968	
996	0	32828	
997	0	32844	
998	0	32756	
999	0	32576	
1000	0	32584	
1001	0	32653	
1002	0	32660	
1003	0	32644	
1004	0	32732	
1005	0	32766	
1006	0	32838	
1007	0	32836	
1008	0	32756	
1009	0	32796	
1010	0	32860	
1011	0	32912	
1012	0	32864	
1013	0	32894	
1014	0	32940	
1015	0	32949	
1016	0	32832	
1017	0	32766	
1018	0	32713	
1019	0	32740	
1020	0	32708	
1021	0	32644	
1022	0	32728	
1023	0	32684	
1024	0	32596	
1025	0	32608	
1026	0	32684	
1027	0	32852	
1028	0	32796	
1029	0	32820	
1030	0	32788	
1031	0	32904	
1032	0	32908	
1033	0	32865	
1034	0	32884	
1035	0	32904	
1036	0	32780	
1037	0	32836	
1038	0	32728	
1039	0	32736	
1040	0	32632	
1041	0	32628	
1042	0	32640	
1043	0	32616	
1044	0	32726	
1045	0	32720	
1046	0	32712	
1047	0	32732	
1048	0	32724	
1049	0	32824	
1050	0	32900	
1051	0	32940	
1052	0	32888	
1053	0	32761	
1054	0	32836	
1055	0	32908	
1056	0	32824	
1057	0	32716	
1058	0	32780	
1059	0	32768	
1060	0	32736	
1061	0	32648	
1062	0	32620	
1063	0	32612	
1064	0	32772	
1065	0	32736	
1066	0	32812	
1067	0	32870	
1068	0	32884	
1069	0	32824	
1070	0	32836	
1071	0	32901	
1072	0	32844	
1073	0	32824	
1074	0	32880	
1075	0	32896	
1076	0	32924	
1077	0	32792	
1078	0	32692	
1079	0	32864	
1080	0	32740	
1081	0	32540	
1082	0	32476	
1083	0	32552	
1084	0	32656	
1085	0	32772	
1086	0	32768	
1087	0	32812	
1088	0	32748	
1089	0	32821	
1090	0	32840	
1091	0	32882	
1092	0	32876	
1093	0	32912	
1094	0	32932	
1095	0	33000	
1096	0	32909	
1097	0	32950	
1098	0	32808	
1099	0	32760	
1100	0	32700	
1101	0	32580	
1102	0	32536	
1103	0	32536	
1104	0	32580	
1105	0	32732	
1106	0	32853	
1107	0	32837	
1108	0	32796	
1109	0	32836	
1110	0	32961	
1111	0	32865	
1112	0	32900	
1113	0	33032	
1114	0	33032	
1115	0	32932	
1116	0	32702	
1117	0	32596	
1118	0	32708	
1119	0	32796	
1120	0	32788	
1121	0	32608	
1122	0	32580	
1123	0	32636	
1124	0	32700	
1125	0	32692	
1126	0	32796	
1127	0	32796	
1128	0	32828	
1129	0	32752	
1130	0	32784	
1131	0	32804	
1132	0	32876	
1133	0	32884	
1134	0	32948	
1135	0	32980	
1136	0	32800	
1137	0	32844	
1138	0	32748	
1139	0	32708	
1140	0	32669	
1141	0	32676	
1142	0	32584	
1143	0	32672	
1144	0	32676	
1145	0	32704	
1146	0	32740	
1147	0	32736	
1148	0	32728	
1149	0	32764	
1150	0	32800	
1151	0	32932	
1152	0	32916	
1153	0	32816	
1154	0	32848	
1155	0	32864	
1156	0	32824	
1157	0	32764	
1158	0	32768	
1159	0	32840	
1160	0	32730	
1161	0	32672	
1162	0	32616	
1163	0	32704	
1164	0	32708	
1165	0	32572	
1166	0	32592	
1167	0	32676	
1168	0	32796	
1169	0	32816	
1170	0	32920	
1171	0	32876	
1172	0	32964	
1173	0	32924	
1174	0	32928	
1175	0	32934	
1176	0	32824	
1177	0	32820	
1178	0	32756	
1179	0	32732	
1180	0	32740	
1181	0	32672	
1182	0	32612	
1183	0	32692	
1184	0	32728	
1185	0	32698	
1186	0	32792	
1187	0	32748	
1188	0	32826	
1189	0	32800	
1190	0	32752	
1191	0	32832	
1192	0	32876	
1193	0	32864	
1194	0	32900	
1195	0	32892	
1196	0	32872	
1197	0	32788	
1198	0	32764	
1199	0	32805	
1200	0	32732	
1201	0	32703	
1202	0	32644	
1203	0	32580	
1204	0	32664	
1205	0	32776	
1206	0	32812	
1207	0	32800	
1208	0	32836	
1209	0	32856	
1210	0	32892	
1211	0	32824	
1212	0	32808	
1213	0	32896	
1214	0	32918	
1215	0	32828	
1216	0	32840	
1217	0	32732	
1218	0	32708	
1219	0	32740	
1220	0	32732	
1221	0	32720	
1222	0	32638	
1223	0	32592	
1224	0	32597	
1225	0	32680	
1226	0	32760	
1227	0	32868	
1228	0	32868	
1229	0	32804	
1230	0	32780	
1231	0	32800	
1232	0	32753	
1233	0	32768	
1234	0	32833	
1235	0	32896	
1236	0	32916	
1237	0	32804	
1238	0	32820	
1239	0	32780	
1240	0	32784	
1241	0	32720	
1242	0	32636	
1243	0	32616	
1244	0	32616	
1245	0	32680	
1246	0	32744	
1247	0	32824	
1248	0	32792	
1249	0	32776	
1250	0	32796	
1251	0	32800	
1252	0	32772	
1253	0	32788	
1254	0	32892	
1255	0	32989	
1256	0	32904	
1257	0	32879	
1258	0	32828	
1259	0	32753	
1260	0	32544	
1261	0	32588	
1262	0	32568	
1263	0	32625	
1264	0	32724	
1265	0	32776	
1266	0	32924	
1267	0	32940	
1268	0	32792	
1269	0	32668	
1270	0	32688	
1271	0	32812	
1272	0	32948	
1273	0	32996	
1274	0	32948	
1275	0	32972	
1276	0	32880	
1277	0	32776	
1278	0	32672	
1279	0	32665	
1280	0	32596	
1281	0	32712	
1282	0	32781	
1283	0	32560	
1284	0	32596	
1285	0	32528	
1286	0	32676	
1287	0	32896	
1288	0	32832	
1289	0	32832	
1290	0	32868	
1291	0	32832	
1292	0	32852	
1293	0	32876	
1294	0	32940	
1295	0	32925	
1296	0	32824	
1297	0	32824	
1298	0	32756	
1299	0	32788	
1300	0	32684	
1301	0	32633	
1302	0	32680	
1303	0	32676	
1304	0	32744	
1305	0	32760	
1306	0	32814	
1307	0	32744	
1308	0	32784	
1309	0	32904	
1310	0	32952	
1311	0	32932	
1312	0	32784	
1313	0	32744	
1314	0	32740	
1315	0	32797	
1316	0	32860	
1317	0	32812	
1318	0	32812	
1319	0	32769	
1320	0	32732	
1321	0	32720	
1322	0	32624	
1323	0	32644	
1324	0	32712	
1325	0	32776	
1326	0	32740	
1327	0	32762	
1328	0	32796	
1329	0	32764	
1330	0	32796	
1331	0	32804	
1332	0	32848	
1333	0	32840	
1334	0	32928	
1335	0	32901	
1336	0	32876	
1337	0	32796	
1338	0	32812	
1339	0	32756	
1340	0	32716	
1341	0	32662	
1342	0	32596	
1343	0	32624	
1344	0	32752	
1345	0	32780	
1346	0	32712	
1347	0	32764	
1348	0	32776	
1349	0	32798	
1350	0	32880	
1351	0	32876	
1352	0	32848	
1353	0	32870	
1354	0	32984	
1355	0	32968	
1356	0	32816	
1357	0	32832	
1358	0	32740	
1359	0	32684	
1360	0	32621	
1361	0	32684	
1362	0	32636	
1363	0	32660	
1364	0	32700	
1365	0	32768	
1366	0	32736	
1367	0	32792	
1368	0	32869	
1369	0	32736	
1370	0	32840	
1371	0	32876	
1372	0	32868	
1373	0	32820	
1374	0	32896	
1375	0	32880	
1376	0	32868	
1377	0	32796	
1378	0	32800	
1379	0	32724	
1380	0	32764	
1381	0	32688	
1382	0	32700	
1383	0	32638	
1384	0	32660	
1385	0	32796	
1386	0	32824	
1387	0	32780	
1388	0	32636	
1389	0	32604	
1390	0	32752	
1391	0	32829	
1392	0	32904	
1393	0	32948	
1394	0	32960	
1395	0	32948	
1396	0	32848	
1397	0	32748	
1398	0	32717	
1399	0	32764	
1400	0	32744	
1401	0	32720	
1402	0	32672	
1403	0	32608	
1404	0	32705	
1405	0	32792	
1406	0	32852	
1407	0	32812	
1408	0	32801	
1409	0	32836	
1410	0	32804	
1411	0	32829	
1412	0	32848	
1413	0	32832	
1414	0	32900	
1415	0	32890	
1416	0	32876	
1417	0	32766	
1418	0	32780	
1419	0	32728	
1420	0	32684	
1421	0	32640	
1422	0	32640	
1423	0	32664	
1424	0	32772	
1425	0	32740	
1426	0	32704	
1427	0	32713	
1428	0	32736	
1429	0	32756	
1430	0	32788	
1431	0	32828	
1432	0	32856	
1433	0	32828	
1434	0	32944	
1435	0	32956	
1436	0	32844	
1437	0	32816	
1438	0	32746	
1439	0	32768	
1440	0	32680	
1441	0	32640	
1442	0	32560	
1443	0	32636	
1444	0	32656	
1445	0	32684	
1446	0	32827	
1447	0	32836	
1448	0	32784	
1449	0	32860	
1450	0	32852	
1451	0	32856	
1452	0	32820	
1453	0	32868	
1454	0	32928	
1455	0	32896	
1456	0	32928	
1457	0	32844	
1458	0	32760	
1459	0	32644	
1460	0	32668	
1461	0	32652	
1462	0	32660	
1463	0	32632	
1464	0	32680	
1465	0	32712	
1466	0	32784	
1467	0	32854	
1468	0	32840	
1469	0	32888	
1470	0	32948	
1471	0	32860	
1472	0	32880	
1473	0	32860	
1474	0	32928	
1475	0	32949	
1476	0	32716	
1477	0	32644	
1478	0	32717	
1479	0	32640	
1480	0	32604	
1481	0	32580	
1482	0	32632	
1483	0	32696	
1484	0	32660	
1485	0	32792	
1486	0	32836	
1487	0	32821	
1488	0	32800	
1489	0	32772	
1490	0	32820	
1491	0	32884	
1492	0	32884	
1493	0	32824	
1494	0	32920	
1495	0	32908	
1496	0	32960	
1497	0	32948	
1498	0	32832	
1499	0	32628	
1500	0	32561	
1501	0	32512	
1502	0	32596	
1503	0	32512	
1504	0	32612	
1505	0	32836	
1506	0	32700	
1507	0	32672	
1508	0	32776	
1509	0	32808	
1510	0	32812	
1511	0	32884	
1512	0	32871	
1513	0	32912	
1514	0	32960	
1515	0	32976	
1516	0	32868	
1517	0	32892	
1518	0	32781	
1519	0	32709	
1520	0	32668	
1521	0	32636	
1522	0	32708	
1523	0	32636	
1524	0	32637	
1525	0	32740	
1526	0	32784	
1527	0	32840	
1528	0	32800	
1529	0	32780	
1530	0	32837	
1531	0	32824	
1532	0	32788	
1533	0	32872	
1534	0	32944	
1535	0	32904	
1536	0	32894	
1537	0	32744	
1538	0	32728	
1539	0	32784	
1540	0	32744	
1541	0	32632	
1542	0	32576	
1543	0	32598	
1544	0	32592	
1545	0	32756	
1546	0	32757	
1547	0	32816	
1548	0	32864	
1549	0	32832	
1550	0	32784	
1551	0	32792	
1552	0	32960	
1553	0	32909	
1554	0	33048	
1555	0	32954	
1556	0	32852	
1557	0	32669	
1558	0	32680	
1559	0	32636	
1560	0	32726	
1561	0	32592	
1562	0	32520	
1563	0	32672	
1564	0	32765	
1565	0	32837	
1566	0	32800	
1567	0	32856	
1568	0	32809	
1569	0	32813	
1570	0	32820	
1571	0	32840	
1572	0	32936	
1573	0	32896	
1574	0	32900	
1575	0	32908	
1576	0	32892	
1577	0	32828	
1578	0	32709	
1579	0	32704	
1580	0	32628	
1581	0	32608	
1582	0	32612	
1583	0	32640	
1584	0	32697	
1585	0	32848	
1586	0	32788	
1587	0	32876	
1588	0	32804	
1589	0	32776	
1590	0	32761	
1591	0	32824	
1592	0	32841	
1593	0	32749	
1594	0	32840	
1595	0	32920	
1596	0	32928	
1597	0	32793	
1598	0	32768	
1599	0	32792	
1600	0	32676	
1601	0	32588	
1602	0	32549	
1603	0	32648	
1604	0	32768	
1605	0	32788	
1606	0	32780	
1607	0	32688	
1608	0	32717	
1609	0	32772	
1610	0	32876	
1611	0	32896	
1612	0	32892	
1613	0	32956	
1614	0	32916	
1615	0	32917	
1616	0	32844	
1617	0	32873	
1618	0	32752	
1619	0	32768	
1620	0	32665	
1621	0	32692	
1622	0	32604	
1623	0	32664	
1624	0	32676	
1625	0	32804	
1626	0	32832	
1627	0	32800	
1628	0	32612	
1629	0	32684	
1630	0	32940	
1631	0	32856	
1632	0	32812	
1633	0	32784	
1634	0	32912	
1635	0	32924	
1636	0	32968	
1637	0	32772	
1638	0	32764	
1639	0	32808	
1640	0	32704	
1641	0	32640	
1642	0	32568	
1643	0	32620	
1644	0	32696	
1645	0	32700	
1646	0	32676	
1647	0	32692	
1648	0	32836	
1649	0	32980	
1650	0	32901	
1651	0	32852	
1652	0	32825	
1653	0	32792	
1654	0	32925	
1655	0	32856	
1656	0	32872	
1657	0	32808	
1658	0	32820	
1659	0	32732	
1660	0	32692	
1661	0	32708	
1662	0	32668	
1663	0	32668	
1664	0	32688	
1665	0	32796	
1666	0	32724	
1667	0	32792	
1668	0	32732	
1669	0	32740	
1670	0	32812	
1671	0	32868	
1672	0	32928	
1673	0	32905	
1674	0	32916	
1675	0	32968	
1676	0	32932	
1677	0	32864	
1678	0	32698	
1679	0	32656	
1680	0	32648	
1681	0	32712	
1682	0	32692	
1683	0	32648	
1684	0	32532	
1685	0	32552	
1686	0	32692	
1687	0	32792	
1688	0	32792	
1689	0	32960	
1690	0	32952	
1691	0	33024	
1692	0	32816	
1693	0	32708	
1694	0	32868	
1695	0	32884	
1696	0	32880	
1697	0	32824	
1698	0	32716	
1699	0	32744	
1700	0	32740	
1701	0	32648	
1702	0	32623	
1703	0	32708	
1704	0	32788	
1705	0	32804	
1706	0	32752	
1707	0	32636	
1708	0	32788	
1709	0	32726	
1710	0	32768	
1711	0	32692	
1712	0	32830	
1713	0	32912	
1714	0	32952	
1715	0	32956	
1716	0	32868	
1717	0	32780	
1718	0	32776	
1719	0	32817	
1720	0	32668	
1721	0	32700	
1722	0	32616	
1723	0	32620	
1724	0	32676	
1725	0	32728	
1726	0	32808	
1727	0	32784	
1728	0	32813	
1729	0	32816	
1730	0	32844	
1731	0	32841	
1732	0	32840	
1733	0	32860	
1734	0	32928	
1735	0	32968	
1736	0	32880	
1737	0	32796	
1738	0	32836	
1739	0	32784	
1740	0	32676	
1741	0	32616	
1742	0	32644	
1743	0	32590	
1744	0	32668	
1745	0	32664	
1746	0	32868	
1747	0	32860	
1748	0	32780	
1749	0	32732	
1750	0	32812	
1751	0	32824	
1752	0	32860	
1753	0	32896	
1754	0	32904	
1755	0	32820	
1756	0	32832	
1757	0	32716	
1758	0	32772	
1759	0	32774	
1760	0	32754	
1761	0	32686	
1762	0	32637	
1763	0	32632	
1764	0	32736	
1765	0	32708	
1766	0	32760	
1767	0	32812	
1768	0	32788	
1769	0	32804	
1770	0	32702	
1771	0	32734	
1772	0	32840	
1773	0	32868	
1774	0	33004	
1775	0	32916	
1776	0	32852	
1777	0	32824	
1778	0	32836	
1779	0	32732	
1780	0	32756	
1781	0	32684	
1782	0	32604	
1783	0	32596	
1784	0	32664	
1785	0	32724	
1786	0	32713	
1787	0	32812	
1788	0	32708	
1789	0	32820	
1790	0	32840	
1791	0	32784	
1792	0	32820	
1793	0	32876	
1794	0	32964	
1795	0	32864	
1796	0	32796	
1797	0	32814	
1798	0	32816	
1799	0	32794	
1800	0	32724	
1801	0	32704	
1802	0	32696	
1803	0	32660	
1804	0	32772	
1805	0	32660	
1806	0	32644	
1807	0	32813	
1808	0	32845	
1809	0	32776	
1810	0	32832	
1811	0	32820	
1812	0	32920	
1813	0	32928	
1814	0	32900	
1815	0	32900	
1816	0	32888	
1817	0	32804	
1818	0	32788	
1819	0	32841	
1820	0	32680	
1821	0	32560	
1822	0	32677	
1823	0	32620	
1824	0	32694	
1825	0	32720	
1826	0	32828	
1827	0	32748	
1828	0	32788	
1829	0	32760	
1830	0	32836	
1831	0	32828	
1832	0	32860	
1833	0	32893	
1834	0	32912	
1835	0	32908	
1836	0	32880	
1837	0	32804	
1838	0	32756	
1839	0	32756	
1840	0	32720	
1841	0	32586	
1842	0	32548	
1843	0	32586	
1844	0	32648	
1845	0	32740	
1846	0	32924	
1847	0	32833	
1848	0	32818	
1849	0	32688	
1850	0	32782	
1851	0	32792	
1852	0	32860	
1853	0	32868	
1854	0	33029	
1855	0	32960	
1856	0	32879	
1857	0	32776	
1858	0	32748	
1859	0	32708	
1860	0	32684	
1861	0	32672	
1862	0	32548	
1863	0	32660	
1864	0	32604	
1865	0	32708	
1866	0	32816	
1867	0	32832	
1868	0	32877	
1869	0	32852	
1870	0	32817	
1871	0	32820	
1872	0	32933	
1873	0	32836	
1874	0	32884	
1875	0	32885	
1876	0	32892	
1877	0	32888	
1878	0	32784	
1879	0	32804	
1880	0	32800	
1881	0	32648	
1882	0	32660	
1883	0	32528	
1884	0	32520	
1885	0	32560	
1886	0	32580	
1887	0	32772	
1888	0	32908	
1889	0	32884	
1890	0	32924	
1891	0	32868	
1892	0	32968	
1893	0	32944	
1894	0	32976	
1895	0	32845	
1896	0	32862	
1897	0	32732	
1898	0	32760	
1899	0	32756	
1900	0	32708	
1901	0	32696	
1902	0	32742	
1903	0	32652	
1904	0	32612	
1905	0	32730	
1906	0	32837	
1907	0	32789	
1908	0	32792	
1909	0	32736	
1910	0	32812	
1911	0	32864	
1912	0	32972	
1913	0	32932	
1914	0	32888	
1915	0	32900	
1916	0	32736	
1917	0	32724	
1918	0	32621	
1919	0	32676	
1920	0	32632	
1921	0	32694	
1922	0	32772	
1923	0	32672	
1924	0	32748	
1925	0	32663	
1926	0	32856	
1927	0	32876	
1928	0	32708	
1929	0	32568	
1930	0	32736	
1931	0	32836	
1932	0	32912	
1933	0	32888	
1934	0	32933	
1935	0	32913	
1936	0	32836	
1937	0	32868	
1938	0	32828	
1939	0	32768	
1940	0	32716	
1941	0	32620	
1942	0	32632	
1943	0	32549	
1944	0	32680	
1945	0	32748	
1946	0	32776	
1947	0	32768	
1948	0	32832	
1949	0	32844	
1950	0	32800	
1951	0	32836	
1952	0	32836	
1953	0	32852	
1954	0	32968	
1955	0	32932	
1956	0	32887	
1957	0	32816	
1958	0	32836	
1959	0	32792	
1960	0	32836	
1961	0	32802	
1962	0	32596	
1963	0	32417	
1964	0	32392	
1965	0	32620	
1966	0	32775	
1967	0	32944	
1968	0	32824	
1969	0	32892	
1970	0	32796	
1971	0	32764	
1972	0	32684	
1973	0	32768	
1974	0	32940	
1975	0	33004	
1976	0	32964	
1977	0	32824	
1978	0	32692	
1979	0	32676	
1980	0	32664	
1981	0	32600	
1982	0	32704	
1983	0	32636	
1984	0	32676	
1985	0	32717	
1986	0	32756	
1987	0	32744	
1988	0	32836	
1989	0	32812	
1990	0	32796	
1991	0	32876	
1992	0	32916	
1993	0	32900	
1994	0	32920	
1995	0	32984	
1996	0	32916	
1997	0	32864	
1998	0	32868	
1999	0	32726	
2000	0	32652	
2001	0	32596	
2002	0	32444	
2003	0	32528	
2004	0	32720	
2005	0	32724	
2006	0	32696	
2007	0	32893	
2008	0	32784	
2009	0	32800	
2010	0	32816	
2011	0	32880	
2012	0	32864	
2013	0	32916	
2014	0	32960	
2015	0	32992	
2016	0	32916	
2017	0	32820	
2018	0	32677	
2019	0	32645	
2020	0	32636	
2021	0	32672	
2022	0	32608	
2023	0	32680	
2024	0	32720	
2025	0	32736	
2026	0	32762	
2027	0	32812	
2028	0	32808	
2029	0	32813	
2030	0	32784	
2031	0	32708	
2032	0	32808	
2033	0	32948	
2034	0	32864	
2035	0	32924	
2036	0	32796	
2037	0	32768	
2038	0	32764	
2039	0	32816	
2040	0	32716	
2041	0	32728	
2042	0	32656	
2043	0	32652	
2044	0	32624	
2045	0	32704	
2046	0	32792	
2047	0	32884	
2048	0	32784	
2049	0	32777	
2050	0	32820	
2051	0	32820	
2052	0	32724	
2053	0	32704	
2054	0	32852	
2055	0	32924	
2056	0	32960	
2057	0	32900	
2058	0	32804	
2059	0	32664	
2060	0	32621	
2061	0	32644	
2062	0	32676	
2063	0	32584	
2064	0	32680	
2065	0	32668	
2066	0	32728	
2067	0	32852	
2068	0	32860	
2069	0	32796	
2070	0	32800	
2071	0	32789	
2072	0	32900	
2073	0	32888	
2074	0	32992	
2075	0	33008	
2076	0	32925	
2077	0	32840	
2078	0	32700	
2079	0	32644	
2080	0	32576	
2081	0	32628	
2082	0	32652	
2083	0	32620	
2084	0	32640	
2085	0	32684	
2086	0	32780	
2087	0	32812	
2088	0	32772	
2089	0	32852	
2090	0	32804	
2091	0	32884	
2092	0	32908	
2093	0	32872	
2094	0	32964	
2095	0	32936	
2096	0	32748	
2097	0	32824	
2098	0	32752	
2099	0	32732	
2100	0	32728	
2101	0	32660	
2102	0	32716	
2103	0	32684	
2104	0	32656	
2105	0	32632	
2106	0	32664	
2107	0	32704	
2108	0	32800	
2109	0	32784	
2110	0	32824	
2111	0	32880	
2112	0	32886	
2113	0	32881	
2114	0	32953	
2115	0	32944	
2116	0	32812	
2117	0	32728	
2118	0	32840	
2119	0	32700	
2120	0	32730	
2121	0	32500	
2122	0	32504	
2123	0	32552	
2124	0	32672	
2125	0	32766	
2126	0	32830	
2127	0	32784	
2128	0	32832	
2129	0	32828	
2130	0	32828	
2131	0	32757	
2132	0	32760	
2133	0	32856	
2134	0	33036	
2135	0	33032	
2136	0	32813	
2137	0	32636	
2138	0	32764	
2139	0	32828	
2140	0	32840	
2141	0	32728	
2142	0	32488	
2143	0	32400	
2144	0	32596	
2145	0	32732	
2146	0	32872	
2147	0	32868	
2148	0	32868	
2149	0	32884	
2150	0	32892	
2151	0	32900	
2152	0	32952	
2153	0	33076	
2154	0	32828	
2155	0	32748	
2156	0	32816	
2157	0	32764	
2158	0	32760	
2159	0	32700	
2160	0	32740	
2161	0	32714	
2162	0	32616	
2163	0	32604	
2164	0	32684	
2165	0	32732	
2166	0	32836	
2167	0	32820	
2168	0	32744	
2169	0	32780	
2170	0	32732	
2171	0	32908	
2172	0	32912	
2173	0	32904	
2174	0	32876	
2175	0	32896	
2176	0	32772	
2177	0	32742	
2178	0	32780	
2179	0	32648	
2180	0	32652	
2181	0	32645	
2182	0	32664	
2183	0	32644	
2184	0	32716	
2185	0	32704	
2186	0	32720	
2187	0	32798	
2188	0	32836	
2189	0	32864	
2190	0	32834	
2191	0	32892	
2192	0	32920	
2193	0	32884	
2194	0	32964	
2195	0	32928	
2196	0	32788	
2197	0	32772	
2198	0	32664	
2199	0	32596	
2200	0	32630	
2201	0	32600	
2202	0	32616	
2203	0	32692	
2204	0	32724	
2205	0	32917	
2206	0	32841	
2207	0	32784	
2208	0	32800	
2209	0	32885	
2210	0	32972	
2211	0	32848	
2212	0	32984	
2213	0	32776	
2214	0	32800	
2215	0	32772	
2216	0	32736	
2217	0	32775	
2218	0	32736	
2219	0	32716	
2220	0	32725	
2221	0	32764	
2222	0	32776	
2223	0	32636	
2224	0	32672	
2225	0	32472	
2226	0	32732	
2227	0	32848	
2228	0	32892	
2229	0	32816	
2230	0	32717	
2231	0	32760	
2232	0	33052	
2233	0	33012	
2234	0	32908	
2235	0	32912	
2236	0	32756	
2237	0	32724	
2238	0	32748	
2239	0	32804	
2240	0	32748	
2241	0	32668	
2242	0	32660	
2243	0	32684	
2244	0	32684	
2245	0	32704	
2246	0	32812	
2247	0	32792	
2248	0	32861	
2249	0	32856	
2250	0	32820	
2251	0	32888	
2252	0	32848	
2253	0	32912	
2254	0	32876	
2255	0	32824	
2256	0	32720	
2257	0	32780	
2258	0	32840	
2259	0	32844	
2260	0	32621	
2261	0	32540	
2262	0	32608	
2263	0	32660	
2264	0	32700	
2265	0	32644	
2266	0	32804	
2267	0	32876	
2268	0	32872	
2269	0	32781	
2270	0	32806	
2271	0	32792	
2272	0	32902	
2273	0	32912	
2274	0	32888	
2275	0	32900	
2276	0	32864	
2277	0	32832	
2278	0	32804	
2279	0	32728	
2280	0	32600	
2281	0	32576	
2282	0	32524	
2283	0	32700	
2284	0	32824	
2285	0	32756	
2286	0	32856	
2287	0	32732	
2288	0	32752	
2289	0	32704	
2290	0	32780	
2291	0	32896	
2292	0	32884	
2293	0	32900	
2294	0	33028	
2295	0	32996	
2296	0	32852	
2297	0	32680	
2298	0	32657	
2299	0	32696	
2300	0	32708	
2301	0	32660	
2302	0	32636	
2303	0	32668	
2304	0	32784	
2305	0	32864	
2306	0	32876	
2307	0	32710	
2308	0	32680	
2309	0	32696	
2310	0	32856	
2311	0	32876	
2312	0	32856	
2313	0	32784	
2314	0	32880	
2315	0	32952	
2316	0	32992	
2317	0	32808	
2318	0	32637	
2319	0	32693	
2320	0	32720	
2321	0	32624	
2322	0	32644	
2323	0	32669	
2324	0	32760	
2325	0	32764	
2326	0	32776	
2327	0	32828	
2328	0	32846	
2329	0	32784	
2330	0	32840	
2331	0	32878	
2332	0	32924	
2333	0	32936	
2334	0	32940	
2335	0	32846	
2336	0	32876	
2337	0	32804	
2338	0	32772	
2339	0	32620	
2340	0	32552	
2341	0	32516	
2342	0	32580	
2343	0	32628	
2344	0	32757	
2345	0	32892	
2346	0	32796	
2347	0	32804	
2348	0	32844	
2349	0	32780	
2350	0	32804	
2351	0	32792	
2352	0	32900	
2353	0	33005	
2354	0	32864	
2355	0	32836	
2356	0	32844	
2357	0	32876	
2358	0	32848	
2359	0	32804	
2360	0	32632	
2361	0	32550	
2362	0	32596	
2363	0	32645	
2364	0	32721	
2365	0	32692	
2366	0	32656	
2367	0	32800	
2368	0	32800	
2369	0	32833	
2370	0	32858	
2371	0	32856	
2372	0	32899	
2373	0	32896	
2374	0	32940	
2375	0	32928	
2376	0	32774	
2377	0	32780	
2378	0	32725	
2379	0	32724	
2380	0	32592	
2381	0	32648	
2382	0	32605	
2383	0	32648	
2384	0	32888	
2385	0	32876	
2386	0	32864	
2387	0	32660	
2388	0	32696	
2389	0	32724	
2390	0	32764	
2391	0	32760	
2392	0	32868	
2393	0	32888	
2394	0	32912	
2395	0	32912	
2396	0	32852	
2397	0	32792	
2398	0	32828	
2399	0	32681	
2400	0	32656	
2401	0	32680	
2402	0	32680	
2403	0	32564	
2404	0	32717	
2405	0	32780	
2406	0	32832	
2407	0	32877	
2408	0	32848	
2409	0	32780	
2410	0	32796	
2411	0	32816	
2412	0	32860	
2413	0	32916	
2414	0	32916	
2415	0	32868	
2416	0	32820	
2417	0	32796	
2418	0	32720	
2419	0	32736	
2420	0	32652	
2421	0	32620	
2422	0	32684	
2423	0	32724	
2424	0	32797	
2425	0	32760	
2426	0	32716	
2427	0	32828	
2428	0	32817	
2429	0	32824	
2430	0	32832	
2431	0	32832	
2432	0	32784	
2433	0	32892	
2434	0	32960	
2435	0	32820	
2436	0	32797	
2437	0	32844	
2438	0	32780	
2439	0	32724	
2440	0	32740	
2441	0	32708	
2442	0	32668	
2443	0	32708	
2444	0	32712	
2445	0	32732	
2446	0	32736	
2447	0	32824	
2448	0	32784	
2449	0	32756	
2450	0	32836	
2451	0	32884	
2452	0	32904	
2453	0	32904	
2454	0	32928	
2455	0	33013	
2456	0	32812	
2457	0	32716	
2458	0	32681	
2459	0	32660	
2460	0	32700	
2461	0	32629	
2462	0	32724	
2463	0	32660	
2464	0	32654	
2465	0	32668	
2466	0	32776	
2467	0	32856	
2468	0	32796	
2469	0	32816	
2470	0	32896	
2471	0	32928	
2472	0	32840	
2473	0	32812	
2474	0	32992	
2475	0	32848	
2476	0	32879	
2477	0	32760	
2478	0	32700	
2479	0	32736	
2480	0	32672	
2481	0	32685	
2482	0	32692	
2483	0	32644	
2484	0	32784	
2485	0	32772	
2486	0	32636	
2487	0	32756	
2488	0	32812	
2489	0	32938	
2490	0	32793	
2491	0	32728	
2492	0	32804	
2493	0	32864	
2494	0	32880	
2495	0	32940	
2496	0	32984	
2497	0	32896	
2498	0	32725	
2499	0	32661	
2500	0	32632	
2501	0	32644	
2502	0	32548	
2503	0	32532	
2504	0	32712	
2505	0	32692	
2506	0	32788	
2507	0	32856	
2508	0	32872	
2509	0	32804	
2510	0	32840	
2511	0	32952	
2512	0	32884	
2513	0	32832	
2514	0	32880	
2515	0	32940	
2516	0	32840	
2517	0	32724	
2518	0	32728	
2519	0	32750	
2520	0	32700	
2521	0	32644	
2522	0	32528	
2523	0	32646	
2524	0	32664	
2525	0	32752	
2526	0	32844	
2527	0	32896	
2528	0	32870	
2529	0	32804	
2530	0	32838	
2531	0	32841	
2532	0	32861	
2533	0	33012	
2534	0	33004	
2535	0	32910	
2536	0	32744	
2537	0	32797	
2538	0	32788	
2539	0	32808	
2540	0	32672	
2541	0	32580	
2542	0	32600	
2543	0	32600	
2544	0	32608	
2545	0	32744	
2546	0	32750	
2547	0	32704	
2548	0	32889	
2549	0	32912	
2550	0	32872	
2551	0	32856	
2552	0	32832	
2553	0	32892	
2554	0	32876	
2555	0	32912	
2556	0	32828	
2557	0	32844	
2558	0	32792	
2559	0	32808	
2560	0	32860	
2561	0	32612	
2562	0	32580	
2563	0	32544	
2564	0	32616	
2565	0	32760	
2566	0	32798	
2567	0	32741	
2568	0	32788	
2569	0	32856	
2570	0	32836	
2571	0	32788	
2572	0	32848	
2573	0	32928	
2574	0	32896	
2575	0	32880	
2576	0	32782	
2577	0	32704	
2578	0	32672	
2579	0	32688	
2580	0	32749	
2581	0	32688	
2582	0	32692	
2583	0	32644	
2584	0	32736	
2585	0	32808	
2586	0	32844	
2587	0	32748	
2588	0	32812	
2589	0	32800	
2590	0	32908	
2591	0	33032	
2592	0	32924	
2593	0	32758	
2594	0	32733	
2595	0	32856	
2596	0	32788	
2597	0	32884	
2598	0	32813	
2599	0	32700	
2600	0	32628	
2601	0	32684	
2602	0	32636	
2603	0	32580	
2604	0	32748	
2605	0	32810	
2606	0	32828	
2607	0	32753	
2608	0	32808	
2609	0	32796	
2610	0	32840	
2611	0	32868	
2612	0	32845	
2613	0	32916	
2614	0	32932	
2615	0	32924	
2616	0	32788	
2617	0	32744	
2618	0	32764	
2619	0	32708	
2620	0	32628	
2621	0	32676	
2622	0	32628	
2623	0	32804	
2624	0	32756	
2625	0	32648	
2626	0	32748	
2627	0	32900	
2628	0	32788	
2629	0	32772	
2630	0	32692	
2631	0	32806	
2632	0	32820	
2633	0	32852	
2634	0	32936	
2635	0	32988	
2636	0	32832	
2637	0	32824	
2638	0	32740	
2639	0	32788	
2640	0	32656	
2641	0	32608	
2642	0	32508	
2643	0	32708	
2644	0	32748	
2645	0	32824	
2646	0	32816	
2647	0	32824	
2648	0	32732	
2649	0	32808	
2650	0	32784	
2651	0	32792	
2652	0	32812	
2653	0	32860	
2654	0	32832	
2655	0	32960	
2656	0	32812	
2657	0	32768	
2658	0	32764	
2659	0	32712	
2660	0	32692	
2661	0	32668	
2662	0	32740	
2663	0	32752	
2664	0	32716	
2665	0	32732	
2666	0	32824	
2667	0	32788	
2668	0	32704	
2669	0	32708	
2670	0	32792	
2671	0	32904	
2672	0	33013	
2673	0	33089	
2674	0	32940	
2675	0	32896	
2676	0	32816	
2677	0	32764	
2678	0	32780	
2679	0	32704	
2680	0	32632	
2681	0	32532	
2682	0	32500	
2683	0	32508	
2684	0	32732	
2685	0	32729	
2686	0	32840	
2687	0	32932	
2688	0	32908	
2689	0	32836	
2690	0	32824	
2691	0	32776	
2692	0	32860	
2693	0	32813	
2694	0	32862	
2695	0	32804	
2696	0	32878	
2697	0	33020	
2698	0	32820	
2699	0	32800	
2700	0	32730	
2701	0	32656	
2702	0	32552	
2703	0	32592	
2704	0	32740	
2705	0	32716	
2706	0	32713	
2707	0	32744	
2708	0	32792	
2709	0	32789	
2710	0	32802	
2711	0	32798	
2712	0	32828	
2713	0	32932	
2714	0	32896	
2715	0	32796	
2716	0	32864	
2717	0	32804	
2718	0	32805	
2719	0	32740	
2720	0	32728	
2721	0	32648	
2722	0	32588	
2723	0	32668	
2724	0	32728	
2725	0	32772	
2726	0	32784	
2727	0	32804	
2728	0	32768	
2729	0	32772	
2730	0	32856	
2731	0	32849	
2732	0	32908	
2733	0	32902	
2734	0	32932	
2735	0	32932	
2736	0	32848	
2737	0	32844	
2738	0	32832	
2739	0	32820	
2740	0	32745	
2741	0	32632	
2742	0	32548	
2743	0	32644	
2744	0	32664	
2745	0	32708	
2746	0	32768	
2747	0	32796	
2748	0	32796	
2749	0	32788	
2750	0	32880	
2751	0	32900	
2752	0	32920	
2753	0	32908	
2754	0	32912	
2755	0	32892	
2756	0	32880	
2757	0	32808	
2758	0	32708	
2759	0	32712	
2760	0	32616	
2761	0	32608	
2762	0	32672	
2763	0	32664	
2764	0	32757	
2765	0	32680	
2766	0	32792	
2767	0	32816	
2768	0	32804	
2769	0	32804	
2770	0	32844	
2771	0	32840	
2772	0	32840	
2773	0	32896	
2774	0	32928	
2775	0	32833	
2776	0	32852	
2777	0	32768	
2778	0	32812	
2779	0	32748	
2780	0	32640	
2781	0	32664	
2782	0	32629	
2783	0	32612	
2784	0	32652	
2785	0	32752	
2786	0	32863	
2787	0	32824	
2788	0	32824	
2789	0	32836	
2790	0	32832	
2791	0	32832	
2792	0	32892	
2793	0	32892	
2794	0	32904	
2795	0	32892	
2796	0	32868	
2797	0	32732	
2798	0	32736	
2799	0	32756	
2800	0	32752	
2801	0	32686	
2802	0	32604	
2803	0	32620	
2804	0	32684	
2805	0	32712	
2806	0	32774	
2807	0	32800	
2808	0	32772	
2809	0	32796	
2810	0	32820	
2811	0	32832	
2812	0	32868	
2813	0	32868	
2814	0	32926	
2815	0	32933	
2816	0	32796	
2817	0	32688	
2818	0	32720	
2819	0	32804	
2820	0	32700	
2821	0	32696	
2822	0	32684	
2823	0	32656	
2824	0	32748	
2825	0	32864	
2826	0	32824	
2827	0	32808	
2828	0	32960	
2829	0	32897	
2830	0	32708	
2831	0	32732	
2832	0	32784	
2833	0	32860	
2834	0	32824	
2835	0	32760	
2836	0	32784	
2837	0	32800	
2838	0	32804	
2839	0	32764	
2840	0	32768	
2841	0	32672	
2842	0	32576	
2843	0	32556	
2844	0	32637	
2845	0	32804	
2846	0	32792	
2847	0	32784	
2848	0	32802	
2849	0	32932	
2850	0	32881	
2851	0	32868	
2852	0	32776	
2853	0	32852	
2854	0	32917	
2855	0	32878	
2856	0	32672	
2857	0	32716	
2858	0	32748	
2859	0	32887	
2860	0	32788	
2861	0	32708	
2862	0	32580	
2863	0	32728	
2864	0	32732	
2865	0	32712	
2866	0	32782	
2867	0	32784	
2868	0	32804	
2869	0	32824	
2870	0	32848	
2871	0	32828	
2872	0	32828	
2873	0	32836	
2874	0	32908	
2875	0	32996	
2876	0	32848	
2877	0	32764	
2878	0	32760	
2879	0	32736	
2880	0	32664	
2881	0	32616	
2882	0	32560	
2883	0	32633	
2884	0	32720	
2885	0	32752	
2886	0	32717	
2887	0	32768	
2888	0	32848	
2889	0	32840	
2890	0	32932	
2891	0	32896	
2892	0	32816	
2893	0	32876	
2894	0	32920	
2895	0	32940	
2896	0	32868	
2897	0	32880	
2898	0	32676	
2899	0	32654	
2900	0	32621	
2901	0	32504	
2902	0	32584	
2903	0	32770	
2904	0	32724	
2905	0	32708	
2906	0	32769	
2907	0	32852	
2908	0	32720	
2909	0	32836	
2910	0	32888	
2911	0	32716	
2912	0	32716	
2913	0	32852	
2914	0	32968	
2915	0	32924	
2916	0	32876	
2917	0	32949	
2918	0	32902	
2919	0	32748	
2920	0	32536	
2921	0	32452	
2922	0	32536	
2923	0	32652	
2924	0	32668	
2925	0	32660	
2926	0	32896	
2927	0	32892	
2928	0	32896	
2929	0	32861	
2930	0	32792	
2931	0	32820	
2932	0	32848	
2933	0	32944	
2934	0	32968	
2935	0	32864	
2936	0	32704	
2937	0	32732	
2938	0	32781	
2939	0	32792	
2940	0	32704	
2941	0	32612	
2942	0	32668	
2943	0	32664	
2944	0	32736	
2945	0	32672	
2946	0	32844	
2947	0	32840	
2948	0	32756	
2949	0	32704	
2950	0	32752	
2951	0	32822	
2952	0	32844	
2953	0	32976	
2954	0	33020	
2955	0	32868	
2956	0	32808	
2957	0	32772	
2958	0	32808	
2959	0	32728	
2960	0	32660	
2961	0	32632	
2962	0	32570	
2963	0	32640	
2964	0	32736	
2965	0	32756	
2966	0	32796	
2967	0	32844	
2968	0	32852	
2969	0	32868	
2970	0	32740	
2971	0	32804	
2972	0	32828	
2973	0	32876	
2974	0	32852	
2975	0	32884	
2976	0	32888	
2977	0	32840	
2978	0	32800	
2979	0	32794	
2980	0	32668	
2981	0	32604	
2982	0	32700	
2983	0	32696	
2984	0	32716	
2985	0	32664	
2986	0	32912	
2987	0	32784	
2988	0	32692	
2989	0	32676	
2990	0	32745	
2991	0	32876	
2992	0	32901	
2993	0	32900	
2994	0	32870	
2995	0	32812	
2996	0	32816	
2997	0	32830	
2998	0	32804	
2999	0	32836	
3000	0	32732	
3001	0	32706	
3002	0	32652	
3003	0	32724	
3004	0	32660	
3005	0	32716	
3006	0	32676	
3007	0	32796	
3008	0	32820	
3009	0	32780	
3010	0	32884	
3011	0	32832	
3012	0	32900	
3013	0	32876	
3014	0	32936	
3015	0	32960	
3016	0	32860	
3017	0	32752	
3018	0	32720	
3019	0	32753	
3020	0	32628	
3021	0	32564	
3022	0	32604	
3023	0	32592	
3024	0	32740	
3025	0	32676	
3026	0	32792	
3027	0	32901	
3028	0	32868	
3029	0	32932	
3030	0	32844	
3031	0	32916	
3032	0	32848	
3033	0	32808	
3034	0	32748	
3035	0	32900	
3036	0	32821	
3037	0	32756	
3038	0	32796	
3039	0	32780	
3040	0	32568	
3041	0	32600	
3042	0	32568	
3043	0	32594	
3044	0	32672	
3045	0	32784	
3046	0	32876	
3047	0	32984	
3048	0	32892	
3049	0	32800	
3050	0	32805	
3051	0	32824	
3052	0	32806	
3053	0	32852	
3054	0	32981	
3055	0	32904	
3056	0	32788	
3057	0	32780	
3058	0	32744	
3059	0	32709	
3060	0	32688	
3061	0	32680	
3062	0	32552	
3063	0	32564	
3064	0	32784	
3065	0	32804	
3066	0	32760	
3067	0	32828	
3068	0	32768	
3069	0	32732	
3070	0	32912	
3071	0	32964	
3072	0	32880	
3073	0	32933	
3074	0	32896	
3075	0	32788	
3076	0	32768	
3077	0	32732	
3078	0	32752	
3079	0	32812	
3080	0	32720	
3081	0	32672	
3082	0	32664	
3083	0	32622	
3084	0	32760	
3085	0	32632	
3086	0	32792	
3087	0	32772	
3088	0	32800	
3089	0	32839	
3090	0	32828	
3091	0	32868	
3092	0	32856	
3093	0	32852	
3094	0	32912	
3095	0	32863	
3096	0	32756	
3097	0	32708	
3098	0	32774	
3099	0	32760	
3100	0	32736	
3101	0	32700	
3102	0	32724	
3103	0	32644	
3104	0	32732	
3105	0	32698	
3106	0	32765	
3107	0	32744	
3108	0	32732	
3109	0	32796	
3110	0	32792	
3111	0	32836	
3112	0	32804	
3113	0	32884	
3114	0	32956	
3115	0	32960	
3116	0	32845	
3117	0	32740	
3118	0	32772	
3119	0	32696	
3120	0	32672	
3121	0	32592	
3122	0	32644	
3123	0	32644	
3124	0	32844	
3125	0	32864	
3126	0	32766	
3127	0	32801	
3128	0	32736	
3129	0	32832	
3130	0	32864	
3131	0	32852	
3132	0	32884	
3133	0	32984	
3134	0	32876	
3135	0	32868	
3136	0	32748	
3137	0	32680	
3138	0	32780	
3139	0	32780	
3140	0	32600	
3141	0	32548	
3142	0	32644	
3143	0	32740	
3144	0	32802	
3145	0	32744	
3146	0	32772	
3147	0	32832	
3148	0	32808	
3149	0	32812	
3150	0	32764	
3151	0	32764	
3152	0	32901	
3153	0	32960	
3154	0	32876	
3155	0	32888	
3156	0	32848	
3157	0	32693	
3158	0	32649	
3159	0	32713	
3160	0	32629	
3161	0	32592	
3162	0	32752	
3163	0	32865	
3164	0	32860	
3165	0	32828	
3166	0	32696	
3167	0	32748	
3168	0	32772	
3169	0	32800	
3170	0	32800	
3171	0	32845	
3172	0	32872	
3173	0	32836	
3174	0	32936	
3175	0	32920	
3176	0	32804	
3177	0	32820	
3178	0	32760	
3179	0	32752	
3180	0	32681	
3181	0	32576	
3182	0	32664	
3183	0	32716	
3184	0	32624	
3185	0	32700	
3186	0	32812	
3187	0	32800	
3188	0	32788	
3189	0	32780	
3190	0	32809	
3191	0	32892	
3192	0	32840	
3193	0	32924	
3194	0	32948	
3195	0	32864	
3196	0	32816	
3197	0	32736	
3198	0	32756	
3199	0	32801	
3200	0	32679	
3201	0	32536	
3202	0	32488	
3203	0	32596	
3204	0	32776	
3205	0	32788	
3206	0	32796	
3207	0	32830	
3208	0	32820	
3209	0	32832	
3210	0	32869	
3211	0	32892	
3212	0	32844	
3213	0	32908	
3214	0	32886	
3215	0	32896	
3216	0	32808	
3217	0	32700	
3218	0	32756	
3219	0	32688	
3220	0	32692	
3221	0	32668	
3222	0	32740	
3223	0	32662	
3224	0	32672	
3225	0	32776	
3226	0	32748	
3227	0	32748	
3228	0	32840	
3229	0	32912	
3230	0	32852	
3231	0	32872	
3232	0	32908	
3233	0	32868	
3234	0	32852	
3235	0	32776	
3236	0	32776	
3237	0	32740	
3238	0	32812	
3239	0	32798	
3240	0	32645	
3241	0	32664	
3242	0	32636	
3243	0	32624	
3244	0	32724	
3245	0	32680	
3246	0	32740	
3247	0	32789	
3248	0	32785	
3249	0	32828	
3250	0	32912	
3251	0	32868	
3252	0	32928	
3253	0	32852	
3254	0	32888	
3255	0	32936	
3256	0	32894	
3257	0	32776	
3258	0	32708	
3259	0	32717	
3260	0	32628	
3261	0	32680	
3262	0	32672	
3263	0	32648	
3264	0	32613	
3265	0	32679	
3266	0	32684	
3267	0	32764	
3268	0	32844	
3269	0	32820	
3270	0	32832	
3271	0	32932	
3272	0	32908	
3273	0	32896	
3274	0	32900	
3275	0	32860	
3276	0	32836	
3277	0	32797	
3278	0	32768	
3279	0	32760	
3280	0	32669	
3281	0	32620	
3282	0	32644	
3283	0	32580	
3284	0	32708	
3285	0	32806	
3286	0	32828	
3287	0	32788	
3288	0	32888	
3289	0	32884	
3290	0	32832	
3291	0	32796	
3292	0	32908	
3293	0	32860	
3294	0	32912	
3295	0	32972	
3296	0	32869	
3297	0	32824	
3298	0	32788	
3299	0	32796	
3300	0	32629	
3301	0	32460	
3302	0	32596	
3303	0	32712	
3304	0	32736	
3305	0	32840	
3306	0	32892	
3307	0	32828	
3308	0	32741	
3309	0	32804	
3310	0	32752	
3311	0	32780	
3312	0	32808	
3313	0	32956	
3314	0	33000	
3315	0	32864	
3316	0	32924	
3317	0	32825	
3318	0	32768	
3319	0	32696	
3320	0	32572	
3321	0	32608	
3322	0	32577	
3323	0	32556	
3324	0	32704	
3325	0	32832	
3326	0	32876	
3327	0	32836	
3328	0	32764	
3329	0	32786	
3330	0	32832	
3331	0	32820	
3332	0	32888	
3333	0	32864	
3334	0	32912	
3335	0	32832	
3336	0	32812	
3337	0	32828	
3338	0	32740	
3339	0	32673	
3340	0	32732	
3341	0	32704	
3342	0	32639	
3343	0	32608	
3344	0	32728	
3345	0	32724	
3346	0	32889	
3347	0	32812	
3348	0	32708	
3349	0	32804	
3350	0	32804	
3351	0	32832	
3352	0	32901	
3353	0	32876	
3354	0	32868	
3355	0	32969	
3356	0	32869	
3357	0	32836	
3358	0	32776	
3359	0	32700	
3360	0	32684	
3361	0	32700	
3362	0	32612	
3363	0	32760	
3364	0	32781	
3365	0	32884	
3366	0	32868	
3367	0	32784	
3368	0	32776	
3369	0	32704	
3370	0	32790	
3371	0	32904	
3372	0	32840	
3373	0	32692	
3374	0	32780	
3375	0	32852	
3376	0	32972	
3377	0	32952	
3378	0	32788	
3379	0	32728	
3380	0	32612	
3381	0	32537	
3382	0	32628	
3383	0	32630	
3384	0	32656	
3385	0	32724	
3386	0	32832	
3387	0	32816	
3388	0	32836	
3389	0	32760	
3390	0	32824	
3391	0	32824	
3392	0	32940	
3393	0	32852	
3394	0	32964	
3395	0	32876	
3396	0	32736	
3397	0	32684	
3398	0	32720	
3399	0	32744	
3400	0	32832	
3401	0	32741	
3402	0	32621	
3403	0	32688	
3404	0	32704	
3405	0	32740	
3406	0	32804	
3407	0	32816	
3408	0	32820	
3409	0	32828	
3410	0	32877	
3411	0	32812	
3412	0	32884	
3413	0	32900	
3414	0	32984	
3415	0	32876	
3416	0	32804	
3417	0	32775	
3418	0	32756	
3419	0	32724	
3420	0	32645	
3421	0	32620	
3422	0	32636	
3423	0	32676	
3424	0	32800	
3425	0	32748	
3426	0	32812	
3427	0	32736	
3428	0	32836	
3429	0	32852	
3430	0	32792	
3431	0	32900	
3432	0	32853	
3433	0	32802	
3434	0	32956	
3435	0	32980	
3436	0	32848	
3437	0	32801	
3438	0	32756	
3439	0	32712	
3440	0	32580	
3441	0	32652	
3442	0	32634	
3443	0	32598	
3444	0	32704	
3445	0	32812	
3446	0	32832	
3447	0	32768	
3448	0	32748	
3449	0	32752	
3450	0	32828	
3451	0	32788	
3452	0	32820	
3453	0	32852	
3454	0	32932	
3455	0	32900	
3456	0	32820	
3457	0	32784	
3458	0	32720	
3459	0	32764	
3460	0	32732	
3461	0	32692	
3462	0	32644	
3463	0	32604	
3464	0	32756	
3465	0	32796	
3466	0	32792	
3467	0	32760	
3468	0	32828	
3469	0	32848	
3470	0	32764	
3471	0	32860	
3472	0	32840	
3473	0	32896	
3474	0	32920	
3475	0	32896	
3476	0	32740	
3477	0	32804	
3478	0	32744	
3479	0	32672	
3480	0	32672	
3481	0	32670	
3482	0	32600	
3483	0	32670	
3484	0	32708	
3485	0	32768	
3486	0	32784	
3487	0	32736	
3488	0	32814	
3489	0	32804	
3490	0	32848	
3491	0	32840	
3492	0	32876	
3493	0	32904	
3494	0	32900	
3495	0	32912	
3496	0	32824	
3497	0	32764	
3498	0	32744	
3499	0	32804	
3500	0	32676	
3501	0	32660	
3502	0	32676	
3503	0	32672	
3504	0	32640	
3505	0	32732	
3506	0	32808	
3507	0	32801	
3508	0	32780	
3509	0	32821	
3510	0	32828	
3511	0	32832	
3512	0	32852	
3513	0	32960	
3514	0	33048	
3515	0	32856	
3516	0	32756	
3517	0	32712	
3518	0	32748	
3519	0	32729	
3520	0	32648	
3521	0	32612	
3522	0	32584	
3523	0	32622	
3524	0	32700	
3525	0	32748	
3526	0	32730	
3527	0	32780	
3528	0	32700	
3529	0	32758	
3530	0	32869	
3531	0	32952	
3532	0	32932	
3533	0	32948	
3534	0	32996	
3535	0	32953	
3536	0	32817	
3537	0	32740	
3538	0	32708	
3539	0	32668	
3540	0	32629	
3541	0	32600	
3542	0	32636	
3543	0	32760	
3544	0	32808	
3545	0	32804	
3546	0	32740	
3547	0	32748	
3548	0	32724	
3549	0	32728	
3550	0	32832	
3551	0	32956	
3552	0	32900	
3553	0	32872	
3554	0	32832	
3555	0	32752	
3556	0	32772	
3557	0	32756	
3558	0	32800	
3559	0	32952	
3560	0	32876	
3561	0	32648	
3562	0	32532	
3563	0	32564	
3564	0	32668	
3565	0	32748	
3566	0	32772	
3567	0	32780	
3568	0	32820	
3569	0	32828	
3570	0	32864	
3571	0	32864	
3572	0	32873	
3573	0	32896	
3574	0	32920	
3575	0	32941	
3576	0	32881	
3577	0	32856	
3578	0	32728	
3579	0	32704	
3580	0	32592	
3581	0	32756	
3582	0	32624	
3583	0	32580	
3584	0	32620	
3585	0	32676	
3586	0	32813	
3587	0	32736	
3588	0	32860	
3589	0	32844	
3590	0	32816	
3591	0	32860	
3592	0	32908	
3593	0	32964	
3594	0	32892	
3595	0	32824	
3596	0	32840	
3597	0	32808	
3598	0	32756	
3599	0	32744	
3600	0	32625	
3601	0	32556	
3602	0	32608	
3603	0	32616	
3604	0	32728	
3605	0	32828	
3606	0	32856	
3607	0	32852	
3608	0	32832	
3609	0	32812	
3610	0	32768	
3611	0	32856	
3612	0	32856	
3613	0	32884	
3614	0	32796	
3615	0	32864	
3616	0	32869	
3617	0	32852	
3618	0	32828	
3619	0	32729	
3620	0	32716	
3621	0	32669	
3622	0	32632	
3623	0	32632	
3624	0	32732	
3625	0	32800	
3626	0	32800	
3627	0	32868	
3628	0	32896	
3629	0	32864	
3630	0	32836	
3631	0	32802	
3632	0	32900	
3633	0	32812	
3634	0	32844	
3635	0	32844	
3636	0	32788	
3637	0	32840	
3638	0	32816	
3639	0	32700	
3640	0	32616	
3641	0	32624	
3642	0	32604	
3643	0	32605	
3644	0	32628	
3645	0	32744	
3646	0	32820	
3647	0	32932	
3648	0	32824	
3649	0	32852	
3650	0	32792	
3651	0	32804	
3652	0	32824	
3653	0	32920	
3654	0	32900	
3655	0	32812	
3656	0	32789	
3657	0	32736	
3658	0	32784	
3659	0	32864	
3660	0	32766	
3661	0	32568	
3662	0	32508	
3663	0	32633	
3664	0	32748	
3665	0	32748	
3666	0	32820	
3667	0	32868	
3668	0	32797	
3669	0	32784	
3670	0	32846	
3671	0	32852	
3672	0	32908	
3673	0	32880	
3674	0	32900	
3675	0	32872	
3676	0	32828	
3677	0	32768	
3678	0	32808	
3679	0	32720	
3680	0	32648	
3681	0	32592	
3682	0	32552	
3683	0	32612	
3684	0	32732	
3685	0	32784	
3686	0	32904	
3687	0	32756	
3688	0	32820	
3689	0	32861	
3690	0	32820	
3691	0	32904	
3692	0	32920	
3693	0	32816	
3694	0	32877	
3695	0	32849	
3696	0	32800	
3697	0	32804	
3698	0	32698	
3699	0	32750	
3700	0	32596	
3701	0	32596	
3702	0	32572	
3703	0	32548	
3704	0	32588	
3705	0	32716	
3706	0	32784	
3707	0	32896	
3708	0	32876	
3709	0	32832	
3710	0	32848	
3711	0	32856	
3712	0	32752	
3713	0	32796	
3714	0	32912	
3715	0	32840	
3716	0	32904	
3717	0	32864	
3718	0	32888	
3719	0	33020	
3720	0	32705	
3721	0	32612	
3722	0	32576	
3723	0	32660	
3724	0	32688	
3725	0	32672	
3726	0	32764	
3727	0	32736	
3728	0	32696	
3729	0	32852	
3730	0	32924	
3731	0	32845	
3732	0	32924	
3733	0	32932	
3734	0	32920	
3735	0	32878	
3736	0	32804	
3737	0	32700	
3738	0	32748	
3739	0	32793	
3740	0	32756	
3741	0	32692	
3742	0	32528	
3743	0	32604	
3744	0	32704	
3745	0	32713	
3746	0	32812	
3747	0	32900	
3748	0	32858	
3749	0	32829	
3750	0	32828	
3751	0	32820	
3752	0	32862	
3753	0	32856	
3754	0	32932	
3755	0	32784	
3756	0	32799	
3757	0	32812	
3758	0	32724	
3759	0	32778	
3760	0	32660	
3761	0	32608	
3762	0	32596	
3763	0	32664	
3764	0	32704	
3765	0	32776	
3766	0	32784	
3767	0	32832	
3768	0	32812	
3769	0	32864	
3770	0	32788	
3771	0	32848	
3772	0	32848	
3773	0	32928	
3774	0	32910	
3775	0	32900	
3776	0	32777	
3777	0	32800	
3778	0	32744	
3779	0	32636	
3780	0	32613	
3781	0	32556	
3782	0	32540	
3783	0	32676	
3784	0	32864	
3785	0	32885	
3786	0	32789	
3787	0	32796	
3788	0	32856	
3789	0	32736	
3790	0	32817	
3791	0	32832	
3792	0	32948	
3793	0	32856	
3794	0	32900	
3795	0	32832	
3796	0	32862	
3797	0	32793	
3798	0	32780	
3799	0	32777	
3800	0	32724	
3801	0	32564	
3802	0	32612	
3803	0	32668	
3804	0	32820	
3805	0	32756	
3806	0	32870	
3807	0	32860	
3808	0	32832	
3809	0	32657	
3810	0	32752	
3811	0	32776	
3812	0	32824	
3813	0	32896	
3814	0	32872	
3815	0	32816	
3816	0	32852	
3817	0	32872	
3818	0	32780	
3819	0	32736	
3820	0	32664	
3821	0	32688	
3822	0	32764	
3823	0	32680	
3824	0	32680	
3825	0	32648	
3826	0	32728	
3827	0	32714	
3828	0	32748	
3829	0	32865	
3830	0	32908	
3831	0	32932	
3832	0	32820	
3833	0	32912	
3834	0	32988	
3835	0	32864	
3836	0	32790	
3837	0	32724	
3838	0	32744	
3839	0	32744	
3840	0	32656	
3841	0	32629	
3842	0	32688	
3843	0	32752	
3844	0	32728	
3845	0	32784	
3846	0	32784	
3847	0	32756	
3848	0	32720	
3849	0	32724	
3850	0	32772	
3851	0	33005	
3852	0	32952	
3853	0	32888	
3854	0	32932	
3855	0	32848	
3856	0	32800	
3857	0	32756	
3858	0	32756	
3859	0	32762	
3860	0	32680	
3861	0	32664	
3862	0	32660	
3863	0	32720	
3864	0	32736	
3865	0	32696	
3866	0	32800	
3867	0	32820	
3868	0	32840	
3869	0	32840	
3870	0	32774	
3871	0	32876	
3872	0	32766	
3873	0	32808	
3874	0	32940	
3875	0	32848	
3876	0	32776	
3877	0	32712	
3878	0	32788	
3879	0	32806	
3880	0	32648	
3881	0	32616	
3882	0	32613	
3883	0	32668	
3884	0	32756	
3885	0	32812	
3886	0	32756	
3887	0	32820	
3888	0	32848	
3889	0	32844	
3890	0	32880	
3891	0	32916	
3892	0	32840	
3893	0	32900	
3894	0	32928	
3895	0	32804	
3896	0	32712	
3897	0	32764	
3898	0	32856	
3899	0	32702	
3900	0	32697	
3901	0	32652	
3902	0	32696	
3903	0	32684	
3904	0	32752	
3905	0	32792	
3906	0	32756	
3907	0	32784	
3908	0	32780	
3909	0	32776	
3910	0	32756	
3911	0	32877	
3912	0	32996	
3913	0	33022	
3914	0	32956	
3915	0	32908	
3916	0	32856	
3917	0	32629	
3918	0	32716	
3919	0	32664	
3920	0	32728	
3921	0	32612	
3922	0	32612	
3923	0	32776	
3924	0	32716	
3925	0	32692	
3926	0	32741	
3927	0	32808	
3928	0	32836	
3929	0	32748	
3930	0	32845	
3931	0	32804	
3932	0	32864	
3933	0	32916	
3934	0	32932	
3935	0	32872	
3936	0	32836	
3937	0	32864	
3938	0	32788	
3939	0	32748	
3940	0	32677	
3941	0	32568	
3942	0	32500	
3943	0	32540	
3944	0	32652	
3945	0	32772	
3946	0	32808	
3947	0	32868	
3948	0	32820	
3949	0	32868	
3950	0	32949	
3951	0	32940	
3952	0	32901	
3953	0	32788	
3954	0	32841	
3955	0	33068	
3956	0	32992	
3957	0	32832	
3958	0	32676	
3959	0	32640	
3960	0	32560	
3961	0	32413	
3962	0	32448	
3963	0	32576	
3964	0	32676	
3965	0	32852	
3966	0	32921	
3967	0	32940	
3968	0	32984	
3969	0	32877	
3970	0	32718	
3971	0	32884	
3972	0	32976	
3973	0	32904	
3974	0	32968	
3975	0	32942	
3976	0	32704	
3977	0	32544	
3978	0	32609	
3979	0	32596	
3980	0	32780	
3981	0	32672	
3982	0	32708	
3983	0	32716	
3984	0	32740	
3985	0	32756	
3986	0	32732	
3987	0	32762	
3988	0	32884	
3989	0	32864	
3990	0	32836	
3991	0	32920	
3992	0	32840	
3993	0	32897	
3994	0	32952	
3995	0	32920	
3996	0	32744	
3997	0	32676	
3998	0	32736	
3999	0	32732	
4000	0	32684	
4001	0	32570	
4002	0	32588	
4003	0	32692	
4004	0	32756	
4005	0	32788	
4006	0	32969	
4007	0	32940	
4008	0	32863	
4009	0	32804	
4010	0	32800	
4011	0	32864	
4012	0	32836	
4013	0	32872	
4014	0	32832	
4015	0	32784	
4016	0	32769	
4017	0	32748	
4018	0	32792	
4019	0	32628	
4020	0	32628	
4021	0	32608	
4022	0	32621	
4023	0	32728	
4024	0	32860	
4025	0	32909	
4026	0	32844	
4027	0	32832	
4028	0	32800	
4029	0	32764	
4030	0	32748	
4031	0	32824	
4032	0	32832	
4033	0	32828	
4034	0	32864	
4035	0	32912	
4036	0	32900	
4037	0	32832	
4038	0	32704	
4039	0	32628	
4040	0	32653	
4041	0	32560	
4042	0	32588	
4043	0	32652	
4044	0	32756	
4045	0	32788	
4046	0	32860	
4047	0	32772	
4048	0	32793	
4049	0	32816	
4050	0	32853	
4051	0	32856	
4052	0	32861	
4053	0	32860	
4054	0	32848	
4055	0	32824	
4056	0	32780	
4057	0	32768	
4058	0	32760	
4059	0	32752	
4060	0	32656	
4061	0	32616	
4062	0	32680	
4063	0	32709	
4064	0	32748	
4065	0	32732	
4066	0	32672	
4067	0	32800	
4068	0	32788	
4069	0	32788	
4070	0	32852	
4071	0	32788	
4072	0	32756	
4073	0	32985	
4074	0	33085	
4075	0	32940	
4076	0	32868	
4077	0	32840	
4078	0	32738	
4079	0	32604	
4080	0	32612	
4081	0	32612	
4082	0	32548	
4083	0	32613	
4084	0	32736	
4085	0	32804	
4086	0	32812	
4087	0	32832	
4088	0	32912	
4089	0	32832	
4090	0	32856	
4091	0	32841	
4092	0	32766	
4093	0	32872	
4094	0	32792	
4095	0	32724	
4096	0	32828	
4097	0	32896	
4098	0	32788	
4099	0	32736	
4100	0	32621	
4101	0	32520	
4102	0	32612	
4103	0	32800	
4104	0	32737	
4105	0	32840	
4106	0	32836	
4107	0	32748	
4108	0	32716	
4109	0	32784	
4110	0	32872	
4111	0	33025	
4112	0	33016	
4113	0	32844	
4114	0	32832	
4115	0	32900	
4116	0	32861	
4117	0	32772	
4118	0	32652	
4119	0	32644	
4120	0	32572	
4121	0	32496	
4122	0	32668	
4123	0	32688	
4124	0	32752	
4125	0	32822	
4126	0	32776	
4127	0	32764	
4128	0	32813	
4129	0	32789	
4130	0	32849	
4131	0	32836	
4132	0	32901	
4133	0	32940	
4134	0	32948	
4135	0	32784	
4136	0	32764	
4137	0	32776	
4138	0	32853	
4139	0	32768	
4140	0	32796	
4141	0	32708	
4142	0	32648	
4143	0	32684	
4144	0	32740	
4145	0	32676	
4146	0	32814	
4147	0	32876	
4148	0	32788	
4149	0	32808	
4150	0	32856	
4151	0	32876	
4152	0	32900	
4153	0	32960	
4154	0	32916	
4155	0	32892	
4156	0	32832	
4157	0	32704	
4158	0	32640	
4159	0	32648	
4160	0	32592	
4161	0	32576	
4162	0	32678	
4163	0	32816	
4164	0	32716	
4165	0	32756	
4166	0	32744	
4167	0	32796	
4168	0	32856	
4169	0	32848	
4170	0	32828	
4171	0	32826	
4172	0	32868	
4173	0	32933	
4174	0	32916	
4175	0	32912	
4176	0	32832	
4177	0	32838	
4178	0	32756	
4179	0	32644	
4180	0	32616	
4181	0	32580	
4182	0	32608	
4183	0	32648	
4184	0	32716	
4185	0	32764	
4186	0	32812	
4187	0	32808	
4188	0	32852	
4189	0	32808	
4190	0	32788	
4191	0	32748	
4192	0	32876	
4193	0	32968	
4194	0	32909	
4195	0	32808	
4196	0	32792	
4197	0	32784	
4198	0	32712	
4199	0	32656	
4200	0	32668	
4201	0	32628	
4202	0	32568	
4203	0	32680	
4204	0	32716	
4205	0	32880	
4206	0	32948	
4207	0	32844	
4208	0	32824	
4209	0	32772	
4210	0	32812	
4211	0	32904	
4212	0	32911	
4213	0	32929	
4214	0	32936	
4215	0	32884	
4216	0	32801	
4217	0	32761	
4218	0	32804	
4219	0	32816	
4220	0	32708	
4221	0	32448	
4222	0	32444	
4223	0	32620	
4224	0	32688	
4225	0	32756	
4226	0	32821	
4227	0	32880	
4228	0	32869	
4229	0	32817	
4230	0	32868	
4231	0	32892	
4232	0	32836	
4233	0	32864	
4234	0	32897	
4235	0	32824	
4236	0	32812	
4237	0	32780	
4238	0	32794	
4239	0	32672	
4240	0	32668	
4241	0	32580	
4242	0	32652	
4243	0	32668	
4244	0	32700	
4245	0	32836	
4246	0	32836	
4247	0	32813	
4248	0	32868	
4249	0	32880	
4250	0	32880	
4251	0	32896	
4252	0	32832	
4253	0	32908	
4254	0	32912	
4255	0	32900	
4256	0	32780	
4257	0	32716	
4258	0	32749	
4259	0	32652	
4260	0	32660	
4261	0	32606	
4262	0	32604	
4263	0	32676	
4264	0	32700	
4265	0	32732	
4266	0	32780	
4267	0	32824	
4268	0	32916	
4269	0	32852	
4270	0	32968	
4271	0	32952	
4272	0	32888	
4273	0	32948	
4274	0	32846	
4275	0	32848	
4276	0	32830	
4277	0	32716	
4278	0	32664	
4279	0	32624	
4280	0	32640	
4281	0	32672	
4282	0	32645	
4283	0	32717	
4284	0	32800	
4285	0	32772	
4286	0	32784	
4287	0	32804	
4288	0	32764	
4289	0	32836	
4290	0	32785	
4291	0	32828	
4292	0	32812	
4293	0	32836	
4294	0	32868	
4295	0	32900	
4296	0	32780	
4297	0	32736	
4298	0	32748	
4299	0	32668	
4300	0	32588	
4301	0	32548	
4302	0	32620	
4303	0	32720	
4304	0	32836	
4305	0	32868	
4306	0	32808	
4307	0	32864	
4308	0	32896	
4309	0	32792	
4310	0	32744	
4311	0	32752	
4312	0	32888	
4313	0	32852	
4314	0	32912	
4315	0	32860	
4316	0	32884	
4317	0	32868	
4318	0	32812	
4319	0	32736	
4320	0	32544	
4321	0	32420	
4322	0	32396	
4323	0	32636	
4324	0	32836	
4325	0	32928	
4326	0	32872	
4327	0	32876	
4328	0	32720	
4329	0	32752	
4330	0	32820	
4331	0	32820	
4332	0	32920	
4333	0	32900	
4334	0	32976	
4335	0	32860	
4336	0	32828	
4337	0	32788	
4338	0	32756	
4339	0	32734	
4340	0	32672	
4341	0	32604	
4342	0	32616	
4343	0	32753	
4344	0	32700	
4345	0	32808	
4346	0	32749	
4347	0	32796	
4348	0	32772	
4349	0	32844	
4350	0	32824	
4351	0	32852	
4352	0	32793	
4353	0	32896	
4354	0	32865	
4355	0	32854	
4356	0	32840	
4357	0	32756	
4358	0	32732	
4359	0	32704	
4360	0	32632	
4361	0	32532	
4362	0	32596	
4363	0	32644	
4364	0	32748	
4365	0	32704	
4366	0	32740	
4367	0	32754	
4368	0	32732	
4369	0	32816	
4370	0	32948	
4371	0	32940	
4372	0	32921	
4373	0	32960	
4374	0	32948	
4375	0	32896	
4376	0	32760	
4377	0	32726	
4378	0	32752	
4379	0	32716	
4380	0	32744	
4381	0	32709	
4382	0	32533	
4383	0	32628	
4384	0	32676	
4385	0	32764	
4386	0	32788	
4387	0	32864	
4388	0	32845	
4389	0	32848	
4390	0	32900	
4391	0	32900	
4392	0	32980	
4393	0	32932	
4394	0	32908	
4395	0	32838	
4396	0	32708	
4397	0	32708	
4398	0	32794	
4399	0	32836	
4400	0	32772	
4401	0	32584	
4402	0	32564	
4403	0	32620	
4404	0	32636	
4405	0	32740	
4406	0	32709	
4407	0	32796	
4408	0	32836	
4409	0	32864	
4410	0	32788	
4411	0	32740	
4412	0	32808	
4413	0	32860	
4414	0	32900	
4415	0	32836	
4416	0	32820	
4417	0	32793	
4418	0	32784	
4419	0	32720	
4420	0	32644	
4421	0	32700	
4422	0	32693	
4423	0	32696	
4424	0	32672	
4425	0	32716	
4426	0	32844	
4427	0	32798	
4428	0	32844	
4429	0	32816	
4430	0	32864	
4431	0	32784	
4432	0	32840	
4433	0	32908	
4434	0	32929	
4435	0	32792	
4436	0	32736	
4437	0	32716	
4438	0	32720	
4439	0	32708	
4440	0	32648	
4441	0	32644	
4442	0	32628	
4443	0	32684	
4444	0	32708	
4445	0	32704	
4446	0	32804	
4447	0	32868	
4448	0	32824	
4449	0	32844	
4450	0	32828	
4451	0	32790	
4452	0	32900	
4453	0	32961	
4454	0	32916	
4455	0	32876	
4456	0	32808	
4457	0	32716	
4458	0	32744	
4459	0	32600	
4460	0	32716	
4461	0	32620	
4462	0	32688	
4463	0	32688	
4464	0	32708	
4465	0	32728	
4466	0	32680	
4467	0	32812	
4468	0	32776	
4469	0	32832	
4470	0	32960	
4471	0	33039	
4472	0	32956	
4473	0	32804	
4474	0	32844	
4475	0	32920	
4476	0	32784	
4477	0	32712	
4478	0	32776	
4479	0	32780	
4480	0	32602	
4481	0	32660	
4482	0	32719	
4483	0	32672	
4484	0	32648	
4485	0	32688	
4486	0	32860	
4487	0	32856	
4488	0	32812	
4489	0	32748	
4490	0	32856	
4491	0	32960	
4492	0	32877	
4493	0	33012	
4494	0	32876	
4495	0	32848	
4496	0	32688	
4497	0	32736	
4498	0	32704	
4499	0	32672	
4500	0	32645	
4501	0	32576	
4502	0	32592	
4503	0	32696	
4504	0	32780	
4505	0	32832	
4506	0	32728	
4507	0	32768	
4508	0	32808	
4509	0	32936	
4510	0	32960	
4511	0	32900	
4512	0	32864	
4513	0	32924	
4514	0	32876	
4515	0	32840	
4516	0	32816	
4517	0	32788	
4518	0	32798	
4519	0	32692	
4520	0	32668	
4521	0	32616	
4522	0	32584	
4523	0	32632	
4524	0	32752	
4525	0	32736	
4526	0	32776	
4527	0	32768	
4528	0	32764	
4529	0	32820	
4530	0	32832	
4531	0	32884	
4532	0	32888	
4533	0	32884	
4534	0	32924	
4535	0	32892	
4536	0	32816	
4537	0	32712	
4538	0	32676	
4539	0	32676	
4540	0	32644	
4541	0	32612	
4542	0	32604	
4543	0	32712	
4544	0	32662	
4545	0	32832	
4546	0	32928	
4547	0	32804	
4548	0	32764	
4549	0	32760	
4550	0	32796	
4551	0	32864	
4552	0	32873	
4553	0	32940	
4554	0	32984	
4555	0	32853	
4556	0	32732	
4557	0	32744	
4558	0	32712	
4559	0	32700	
4560	0	32644	
4561	0	32632	
4562	0	32676	
4563	0	32740	
4564	0	32637	
4565	0	32796	
4566	0	32836	
4567	0	32864	
4568	0	32782	
4569	0	32764	
4570	0	32777	
4571	0	32844	
4572	0	32908	
4573	0	32892	
4574	0	32984	
4575	0	32905	
4576	0	32901	
4577	0	32784	
4578	0	32719	
4579	0	32656	
4580	0	32588	
4581	0	32592	
4582	0	32644	
4583	0	32728	
4584	0	32700	
4585	0	32740	
4586	0	32788	
4587	0	32732	
4588	0	32840	
4589	0	32992	
4590	0	32992	
4591	0	32868	
4592	0	32688	
4593	0	32856	
4594	0	32910	
4595	0	32980	
4596	0	32788	
4597	0	32688	
4598	0	32698	
4599	0	32628	
4600	0	32629	
4601	0	32557	
4602	0	32628	
4603	0	32756	
4604	0	32708	
4605	0	32720	
4606	0	32756	
4607	0	32804	
4608	0	32784	
4609	0	32868	
4610	0	32820	
4611	0	32844	
4612	0	32916	
4613	0	32928	
4614	0	32940	
4615	0	32884	
4616	0	32676	
4617	0	32676	
4618	0	32768	
4619	0	32648	
4620	0	32612	
4621	0	32648	
4622	0	32700	
4623	0	32712	
4624	0	32656	
4625	0	32660	
4626	0	32696	
4627	0	32848	
4628	0	32956	
4629	0	32872	
4630	0	32876	
4631	0	32869	
4632	0	32912	
4633	0	32889	
4634	0	32808	
4635	0	32828	
4636	0	32769	
4637	0	32688	
4638	0	32713	
4639	0	32668	
4640	0	32644	
4641	0	32680	
4642	0	32580	
4643	0	32752	
4644	0	32716	
4645	0	32740	
4646	0	32792	
4647	0	32860	
4648	0	32864	
4649	0	32812	
4650	0	32748	
4651	0	32842	
4652	0	32996	
4653	0	32964	
4654	0	32881	
4655	0	32800	
4656	0	32732	
4657	0	32752	
4658	0	32724	
4659	0	32720	
4660	0	32616	
4661	0	32524	
4662	0	32628	
4663	0	32646	
4664	0	32673	
4665	0	32808	
4666	0	32872	
4667	0	32908	
4668	0	32816	
4669	0	32828	
4670	0	32768	
4671	0	32856	
4672	0	32868	
4673	0	32941	
4674	0	32944	
4675	0	32785	
4676	0	32760	
4677	0	32788	
4678	0	32848	
4679	0	32712	
4680	0	32684	
4681	0	32608	
4682	0	32640	
4683	0	32561	
4684	0	32780	
4685	0	32781	
4686	0	32824	
4687	0	32860	
4688	0	32788	
4689	0	32884	
4690	0	32772	
4691	0	32830	
4692	0	32852	
4693	0	32992	
4694	0	33006	
4695	0	32892	
4696	0	32804	
4697	0	32748	
4698	0	32716	
4699	0	32632	
4700	0	32600	
4701	0	32568	
4702	0	32701	
4703	0	32792	
4704	0	32732	
4705	0	32756	
4706	0	32713	
4707	0	32876	
4708	0	32856	
4709	0	32909	
4710	0	32964	
4711	0	32864	
4712	0	32776	
4713	0	32820	
4714	0	32876	
4715	0	32724	
4716	0	32792	
4717	0	32761	
4718	0	32788	
4719	0	32652	
4720	0	32660	
4721	0	32640	
4722	0	32672	
4723	0	32648	
4724	0	32728	
4725	0	32762	
4726	0	32824	
4727	0	32876	
4728	0	32884	
4729	0	32932	
4730	0	32820	
4731	0	32785	
4732	0	32836	
4733	0	32904	
4734	0	32908	
4735	0	32816	
4736	0	32748	
4737	0	32816	
4738	0	32776	
4739	0	32744	
4740	0	32644	
4741	0	32644	
4742	0	32640	
4743	0	32668	
4744	0	32736	
4745	0	32744	
4746	0	32736	
4747	0	32736	
4748	0	32836	
4749	0	32852	
4750	0	32880	
4751	0	32912	
4752	0	32844	
4753	0	32932	
4754	0	32928	
4755	0	32824	
4756	0	32780	
4757	0	32728	
4758	0	32790	
4759	0	32644	
4760	0	32664	
4761	0	32572	
4762	0	32552	
4763	0	32716	
4764	0	32732	
4765	0	32766	
4766	0	32748	
4767	0	32822	
4768	0	32808	
4769	0	32837	
4770	0	32798	
4771	0	32940	
4772	0	32932	
4773	0	32943	
4774	0	32848	
4775	0	32732	
4776	0	32712	
4777	0	32708	
4778	0	32726	
4779	0	32700	
4780	0	32749	
4781	0	32672	
4782	0	32632	
4783	0	32712	
4784	0	32700	
4785	0	32696	
4786	0	32774	
4787	0	32768	
4788	0	32844	
4789	0	32812	
4790	0	32776	
4791	0	32910	
4792	0	32880	
4793	0	32932	
4794	0	32944	
4795	0	32940	
4796	0	32876	
4797	0	32860	
4798	0	32684	
4799	0	32536	
4800	0	32620	
4801	0	32612	
4802	0	32636	
4803	0	32760	
4804	0	32781	
4805	0	32704	
4806	0	32708	
4807	0	32776	
4808	0	32776	
4809	0	32830	
4810	0	32868	
4811	0	32894	
4812	0	32920	
4813	0	32888	
4814	0	32948	
4815	0	32832	
4816	0	32783	
4817	0	32800	
4818	0	32732	
4819	0	32694	
4820	0	32644	
4821	0	32576	
4822	0	32580	
4823	0	32687	
4824	0	32766	
4825	0	32816	
4826	0	32837	
4827	0	32804	
4828	0	32820	
4829	0	32792	
4830	0	32828	
4831	0	32964	
4832	0	32988	
4833	0	32856	
4834	0	32860	
4835	0	32828	
4836	0	32864	
4837	0	32780	
4838	0	32780	
4839	0	32676	
4840	0	32632	
4841	0	32496	
4842	0	32621	
4843	0	32692	
4844	0	32728	
4845	0	32732	
4846	0	32772	
4847	0	32824	
4848	0	32796	
4849	0	32844	
4850	0	32860	
4851	0	32846	
4852	0	32901	
4853	0	32980	
4854	0	32912	
4855	0	32885	
4856	0	32784	
4857	0	32780	
4858	0	32833	
4859	0	32660	
4860	0	32660	
4861	0	32672	
4862	0	32700	
4863	0	32716	
4864	0	32768	
4865	0	32708	
4866	0	32756	
4867	0	32812	
4868	0	32824	
4869	0	32836	
4870	0	32808	
4871	0	32872	
4872	0	32864	
4873	0	32896	
4874	0	32884	
4875	0	32772	
4876	0	32792	
4877	0	32806	
4878	0	32733	
4879	0	32640	
4880	0	32589	
4881	0	32584	
4882	0	32584	
4883	0	32672	
4884	0	32688	
4885	0	32692	
4886	0	32825	
4887	0	32800	
4888	0	32804	
4889	0	32836	
4890	0	32876	
4891	0	32820	
4892	0	32896	
4893	0	32920	
4894	0	32920	
4895	0	32836	
4896	0	32820	
4897	0	32780	
4898	0	32764	
4899	0	32708	
4900	0	32716	
4901	0	32688	
4902	0	32644	
4903	0	32748	
4904	0	32780	
4905	0	32784	
4906	0	32784	
4907	0	32812	
4908	0	32740	
4909	0	32796	
4910	0	32776	
4911	0	32888	
4912	0	32905	
4913	0	32900	
4914	0	32940	
4915	0	32888	
4916	0	32796	
4917	0	32788	
4918	0	32764	
4919	0	32728	
4920	0	32740	
4921	0	32596	
4922	0	32684	
4923	0	32705	
4924	0	32788	
4925	0	32820	
4926	0	32772	
4927	0	32728	
4928	0	32804	
4929	0	32856	
4930	0	32832	
4931	0	32856	
4932	0	32884	
4933	0	32924	
4934	0	32856	
4935	0	32821	
4936	0	32784	
4937	0	32766	
4938	0	32736	
4939	0	32700	
4940	0	32656	
4941	0	32628	
4942	0	32636	
4943	0	32688	
4944	0	32790	
4945	0	32716	
4946	0	32818	
4947	0	32744	
4948	0	32756	
4949	0	32608	
4950	0	32544	
4951	0	32684	
4952	0	33072	
4953	0	33328	
4954	0	33344	
4955	0	32992	
4956	0	32789	
4957	0	32672	
4958	0	32744	
4959	0	32628	
4960	0	32576	
4961	0	32477	
4962	0	32488	
4963	0	32644	
4964	0	32728	
4965	0	32732	
4966	0	32740	
4967	0	32708	
4968	0	32776	
4969	0	32724	
4970	0	32872	
4971	0	33053	
4972	0	32904	
4973	0	32872	
4974	0	32880	
4975	0	32820	
4976	0	32760	
4977	0	32816	
4978	0	32720	
4979	0	32585	
4980	0	32644	
4981	0	32644	
4982	0	32664	
4983	0	32765	
4984	0	32716	
4985	0	32756	
4986	0	32760	
4987	0	32804	
4988	0	32940	
4989	0	32896	
4990	0	32904	
4991	0	32852	
4992	0	32944	
4993	0	32909	
4994	0	32892	
4995	0	32872	
4996	0	32756	
4997	0	32788	
4998	0	32772	
4999	0	32692	
5000	0	32640	
5001	0	32576	
5002	0	32568	
5003	0	32708	
5004	0	32633	
5005	0	32724	
5006	0	32720	
5007	0	32796	
5008	0	32900	
5009	0	33000	
5010	0	32960	
5011	0	32844	
5012	0	32778	
5013	0	32928	
5014	0	33020	
5015	0	32908	
5016	0	32776	
5017	0	32728	
5018	0	32684	
5019	0	32608	
5020	0	32573	
5021	0	32532	
5022	0	32668	
5023	0	32664	
5024	0	32776	
5025	0	32744	
5026	0	32832	
5027	0	32792	
5028	0	32756	
5029	0	32832	
5030	0	32876	
5031	0	32812	
5032	0	32860	
5033	0	32876	
5034	0	32880	
5035	0	32784	
5036	0	32784	
5037	0	32801	
5038	0	32776	
5039	0	32664	
5040	0	32672	
5041	0	32680	
5042	0	32652	
5043	0	32632	
5044	0	32832	
5045	0	32765	
5046	0	32868	
5047	0	32761	
5048	0	32804	
5049	0	32800	
5050	0	32796	
5051	0	32704	
5052	0	32736	
5053	0	32864	
5054	0	32976	
5055	0	33136	
5056	0	33060	
5057	0	32840	
5058	0	32740	
5059	0	32580	
5060	0	32496	
5061	0	32480	
5062	0	32744	
5063	0	32724	
5064	0	32668	
5065	0	32728	
5066	0	32792	
5067	0	32828	
5068	0	32737	
5069	0	32776	
5070	0	32837	
5071	0	32908	
5072	0	32985	
5073	0	32976	
5074	0	32948	
5075	0	32876	
5076	0	32750	
5077	0	32676	
5078	0	32760	
5079	0	32628	
5080	0	32652	
5081	0	32681	
5082	0	32640	
5083	0	32748	
5084	0	32792	
5085	0	32796	
5086	0	32800	
5087	0	32824	
5088	0	32744	
5089	0	32816	
5090	0	32820	
5091	0	32897	
5092	0	32888	
5093	0	32924	
5094	0	32954	
5095	0	32824	
5096	0	32764	
5097	0	32788	
5098	0	32688	
5099	0	32676	
5100	0	32668	
5101	0	32640	
5102	0	32698	
5103	0	32796	
5104	0	32800	
5105	0	32736	
5106	0	32672	
5107	0	32740	
5108	0	32796	
5109	0	32780	
5110	0	32848	
5111	0	32892	
5112	0	32940	
5113	0	32976	
5114	0	32903	
5115	0	32832	
5116	0	32756	
5117	0	32708	
5118	0	32728	
5119	0	32552	
5120	0	32577	
5121	0	32668	
5122	0	32820	
5123	0	32832	
5124	0	32769	
5125	0	32796	
5126	0	32845	
5127	0	32744	
5128	0	32704	
5129	0	32710	
5130	0	32775	
5131	0	32836	
5132	0	32984	
5133	0	33000	
5134	0	32924	
5135	0	32844	
5136	0	32772	
5137	0	32680	
5138	0	32636	
5139	0	32596	
5140	0	32624	
5141	0	32668	
5142	0	32800	
5143	0	32696	
5144	0	32660	
5145	0	32757	
5146	0	32868	
5147	0	32800	
5148	0	32740	
5149	0	32856	
5150	0	32944	
5151	0	32945	
5152	0	32860	
5153	0	32828	
5154	0	32912	
5155	0	32904	
5156	0	32800	
5157	0	32744	
5158	0	32724	
5159	0	32580	
5160	0	32496	
5161	0	32468	
5162	0	32476	
5163	0	32666	
5164	0	32560	
5165	0	32164	
5166	0	32096	
5167	0	32484	
5168	0	32584	
5169	0	32686	
5170	0	32894	
5171	0	32948	
5172	0	32996	
5173	0	33140	
5174	0	33152	
5175	0	33064	
5176	0	32968	
5177	0	32772	
5178	0	32296	
5179	0	32464	
5180	0	32644	
5181	0	32716	
5182	0	32750	
5183	0	32756	
5184	0	32612	
5185	0	32704	
5186	0	32816	
5187	0	32568	
5188	0	32676	
5189	0	33116	
5190	0	33728	
5191	0	33553	
5192	0	33128	
5193	0	33054	
5194	0	33088	
5195	0	33340	
5196	0	33564	
5197	0	33404	
5198	0	33220	
5199	0	33224	
5200	0	33232	
5201	0	33540	
5202	0	33836	
5203	0	33700	
5204	0	33332	
5205	0	32448	
5206	0	30406	
5207	0	29284	
5208	0	29860	
5209	0	30882	
5210	0	31820	
5211	0	31660	
5212	0	31848	
5213	0	32504	
5214	0	32042	
5215	0	30368	
5216	0	29836	
5217	0	30121	
5218	0	30742	
5219	0	31120	
5220	0	31668	
5221	0	33204	
5222	0	34590	
5223	0	35376	
5224	0	36332	
5225	0	37668	
5226	0	38236	
5227	0	37832	
5228	0	37464	
5229	0	35860	
5230	0	31280	
5231	0	27032	
5232	0	27568	
5233	0	29760	
5234	0	31392	
5235	0	32644	
5236	0	34412	
5237	0	36148	
5238	0	37760	
5239	0	38156	
5240	0	35716	
5241	0	33208	
5242	0	32753	
5243	0	32560	
5244	0	32220	
5245	0	31668	
5246	0	30572	
5247	0	30316	
5248	0	31432	
5249	0	32132	
5250	0	32796	
5251	0	33884	
5252	0	33508	
5253	0	30556	
5254	0	30729	
5255	0	28732	
5256	0	28822	
5257	0	30392	
5258	0	32960	
5259	0	32548	
5260	0	30272	
5261	0	29902	
5262	0	31420	
5263	0	32528	
5264	0	35284	
5265	0	36456	
5266	0	35485	
5267	0	36344	
5268	0	36536	
5269	0	38153	
5270	0	38284	
5271	0	36628	
5272	0	35560	
5273	0	36036	
5274	0	35184	
5275	0	32016	
5276	0	30272	
5277	0	29584	
5278	0	28640	
5279	0	29416	
5280	0	25764	
5281	0	25484	
5282	0	29444	
5283	0	34192	
5284	0	37672	
5285	0	38748	
5286	0	34260	
5287	0	31508	
5288	0	31400	
5289	0	30356	
5290	0	33160	
5291	0	35328	
5292	0	37124	
5293	0	37184	
5294	0	36320	
5295	0	36137	
5296	0	34112	
5297	0	32524	
5298	0	31852	
5299	0	31100	
5300	0	30152	
5301	0	29100	
5302	0	29113	
5303	0	29200	
5304	0	30308	
5305	0	30908	
5306	0	32612	
5307	0	34004	
5308	0	34996	
5309	0	34894	
5310	0	31428	
5311	0	28984	
5312	0	29256	
5313	0	30364	
5314	0	31672	
5315	0	32860	
5316	0	34472	
5317	0	35677	
5318	0	36020	
5319	0	34533	
5320	0	32716	
5321	0	28900	
5322	0	28444	
5323	0	30144	
5324	0	32240	
5325	0	33444	
5326	0	34280	
5327	0	34996	
5328	0	35852	
5329	0	35580	
5330	0	31064	
5331	0	23360	
5332	0	22316	
5333	0	23548	
5334	0	21552	
5335	0	19948	
5336	0	25140	
5337	0	32464	
5338	0	40088	
5339	0	45412	
5340	0	48056	
5341	0	48556	
5342	0	47596	
5343	0	45452	
5344	0	43048	
5345	0	40940	
5346	0	38848	
5347	0	36524	
5348	0	32904	
5349	0	25308	
5350	0	19910	
5351	0	20126	
5352	0	25004	
5353	0	30640	
5354	0	33216	
5355	0	33776	
5356	0	34880	
5357	0	35524	
5358	0	35796	
5359	0	35069	
5360	0	32454	
5361	0	29728	
5362	0	25685	
5363	0	22452	
5364	0	21898	
5365	0	24820	
5366	0	29792	
5367	0	33572	
5368	0	36600	
5369	0	37928	
5370	0	38126	
5371	0	38316	
5372	0	40324	
5373	0	38320	
5374	0	33012	
5375	0	33812	
5376	0	35580	
5377	0	36544	
5378	0	35732	
5379	0	35744	
5380	0	35632	
5381	0	35748	
5382	0	36168	
5383	0	36112	
5384	0	34964	
5385	0	33992	
5386	0	32760	
5387	0	31428	
5388	0	30340	
5389	0	29628	
5390	0	29364	
5391	0	29124	
5392	0	29120	
5393	0	29032	
5394	0	27816	
5395	0	24946	
5396	0	24898	
5397	0	26468	
5398	0	28064	
5399	0	29064	
5400	0	27744	
5401	0	25776	
5402	0	28624	
5403	0	31920	
5404	0	35360	
5405	0	38404	
5406	0	40692	
5407	0	42464	
5408	0	41724	
5409	0	40025	
5410	0	38512	
5411	0	36877	
5412	0	35432	
5413	0	33652	
5414	0	32178	
5415	0	30080	
5416	0	22722	
5417	0	17148	
5418	0	17918	
5419	0	21698	
5420	0	26480	
5421	0	32420	
5422	0	36416	
5423	0	38524	
5424	0	40876	
5425	0	41360	
5426	0	40164	
5427	0	39836	
5428	0	40208	
5429	0	39388	
5430	0	38184	
5431	0	32766	
5432	0	30728	
5433	0	31468	
5434	0	32164	
5435	0	31096	
5436	0	31904	
5437	0	33908	
5438	0	34708	
5439	0	35000	
5440	0	34300	
5441	0	33876	
5442	0	33764	
5443	0	34332	
5444	0	34832	
5445	0	34876	
5446	0	32604	
5447	0	30472	
5448	0	29276	
5449	0	26980	
5450	0	20828	
5451	0	19124	
5452	0	23440	
5453	0	28644	
5454	0	32028	
5455	0	35418	
5456	0	38868	
5457	0	41258	
5458	0	41796	
5459	0	41680	
5460	0	40800	
5461	0	38804	
5462	0	30436	
5463	0	25120	
5464	0	26576	
5465	0	29318	
5466	0	31876	
5467	0	33664	
5468	0	35532	
5469	0	34076	
5470	0	32456	
5471	0	28992	
5472	0	30648	
5473	0	33044	
5474	0	35112	
5475	0	36992	
5476	0	37088	
5477	0	37312	
5478	0	35848	
5479	0	32248	
5480	0	27784	
5481	0	26328	
5482	0	28144	
5483	0	31064	
5484	0	34908	
5485	0	37124	
5486	0	37876	
5487	0	36768	
5488	0	34912	
5489	0	32880	
5490	0	31360	
5491	0	30828	
5492	0	29532	
5493	0	28232	
5494	0	28216	
5495	0	30138	
5496	0	31942	
5497	0	32032	
5498	0	32760	
5499	0	33612	
5500	0	33988	
5501	0	32833	
5502	0	31816	
5503	0	30092	
5504	0	29445	
5505	0	30180	
5506	0	31740	
5507	0	33198	
5508	0	33528	
5509	0	33780	
5510	0	33776	
5511	0	33336	
5512	0	31304	
5513	0	28725	
5514	0	29356	
5515	0	31012	
5516	0	32000	
5517	0	30716	
5518	0	28556	
5519	0	28816	
5520	0	31350	
5521	0	35504	
5522	0	39492	
5523	0	41240	
5524	0	39340	
5525	0	35765	
5526	0	32624	
5527	0	32324	
5528	0	29833	
5529	0	32834	
5530	0	36612	
5531	0	39496	
5532	0	40996	
5533	0	41104	
5534	0	39732	
5535	0	34872	
5536	0	28622	
5537	0	26952	
5538	0	28196	
5539	0	28888	
5540	0	28100	
5541	0	26521	
5542	0	24976	
5543	0	26908	
5544	0	29504	
5545	0	33793	
5546	0	38056	
5547	0	40544	
5548	0	40264	
5549	0	40444	
5550	0	40908	
5551	0	40028	
5552	0	38783	
5553	0	37360	
5554	0	35976	
5555	0	34472	
5556	0	28216	
5557	0	26108	
5558	0	26668	
5559	0	27352	
5560	0	28256	
5561	0	28640	
5562	0	29590	
5563	0	30436	
5564	0	30220	
5565	0	26856	
5566	0	25549	
5567	0	27316	
5568	0	30373	
5569	0	31096	
5570	0	32308	
5571	0	33620	
5572	0	34140	
5573	0	34092	
5574	0	34952	
5575	0	37256	
5576	0	38800	
5577	0	39300	
5578	0	38500	
5579	0	36740	
5580	0	35460	
5581	0	34792	
5582	0	33980	
5583	0	32900	
5584	0	31736	
5585	0	29532	
5586	0	26440	
5587	0	25540	
5588	0	26060	
5589	0	28520	
5590	0	30664	
5591	0	33192	
5592	0	35168	
5593	0	36172	
5594	0	36504	
5595	0	36096	
5596	0	35364	
5597	0	33872	
5598	0	32632	
5599	0	31720	
5600	0	30372	
5601	0	30348	
5602	0	29572	
5603	0	28564	
5604	0	28732	
5605	0	30404	
5606	0	29632	
5607	0	29116	
5608	0	31224	
5609	0	31340	
5610	0	31364	
5611	0	32108	
5612	0	31432	
5613	0	29832	
5614	0	30680	
5615	0	34444	
5616	0	39324	
5617	0	42608	
5618	0	41008	
5619	0	37972	
5620	0	36768	
5621	0	34119	
5622	0	34256	
5623	0	32685	
5624	0	34268	
5625	0	38144	
5626	0	41236	
5627	0	42868	
5628	0	41044	
5629	0	36968	
5630	0	31380	
5631	0	27884	
5632	0	25924	
5633	0	26692	
5634	0	27841	
5635	0	26720	
5636	0	25952	
5637	0	28600	
5638	0	32028	
5639	0	33480	
5640	0	33120	
5641	0	34432	
5642	0	36640	
5643	0	38140	
5644	0	38304	
5645	0	36768	
5646	0	35076	
5647	0	34104	
5648	0	32056	
5649	0	30492	
5650	0	28824	
5651	0	27746	
5652	0	28376	
5653	0	29240	
5654	0	30468	
5655	0	30920	
5656	0	31352	
5657	0	31840	
5658	0	31604	
5659	0	30937	
5660	0	31088	
5661	0	31288	
5662	0	31224	
5663	0	31780	
5664	0	32462	
5665	0	33036	
5666	0	33316	
5667	0	33420	
5668	0	33860	
5669	0	34256	
5670	0	33348	
5671	0	31844	
5672	0	29600	
5673	0	27644	
5674	0	29320	
5675	0	32096	
5676	0	34632	
5677	0	36352	
5678	0	37817	
5679	0	38420	
5680	0	38004	
5681	0	37004	
5682	0	35728	
5683	0	34552	
5684	0	33240	
5685	0	32040	
5686	0	30836	
5687	0	30096	
5688	0	30000	
5689	0	29954	
5690	0	30000	
5691	0	30688	
5692	0	31024	
5693	0	31692	
5694	0	31532	
5695	0	30868	
5696	0	23928	
5697	0	21793	
5698	0	24246	
5699	0	30152	
5700	0	36312	
5701	0	40960	
5702	0	43456	
5703	0	43808	
5704	0	43705	
5705	0	41612	
5706	0	38344	
5707	0	35756	
5708	0	33408	
5709	0	32696	
5710	0	31974	
5711	0	31644	
5712	0	32164	
5713	0	33400	
5714	0	34633	
5715	0	35164	
5716	0	33728	
5717	0	31100	
5718	0	28888	
5719	0	28032	
5720	0	28788	
5721	0	28740	
5722	0	29029	
5723	0	30050	
5724	0	28509	
5725	0	26428	
5726	0	25544	
5727	0	26871	
5728	0	29920	
5729	0	33624	
5730	0	36977	
5731	0	39512	
5732	0	40820	
5733	0	41140	
5734	0	40280	
5735	0	38848	
5736	0	37376	
5737	0	34972	
5738	0	32972	
5739	0	31320	
5740	0	30928	
5741	0	31092	
5742	0	30116	
5743	0	30908	
5744	0	31856	
5745	0	32288	
5746	0	31940	
5747	0	31576	
5748	0	31328	
5749	0	31332	
5750	0	31262	
5751	0	31296	
5752	0	31444	
5753	0	30916	
5754	0	30884	
5755	0	30976	
5756	0	31300	
5757	0	31220	
5758	0	32140	
5759	0	32844	
5760	0	33220	
5761	0	33648	
5762	0	33868	
5763	0	34064	
5764	0	34088	
5765	0	33816	
5766	0	33412	
5767	0	33088	
5768	0	32948	
5769	0	32856	
5770	0	32772	
5771	0	32756	
5772	0	32788	
5773	0	32836	
5774	0	32796	
5775	0	32768	
5776	0	32768	
5777	0	32752	
5778	0	32692	
5779	0	32548	
5780	0	32524	
5781	0	32824	
5782	0	33028	
5783	0	33076	
5784	0	33268	
5785	0	32960	
5786	0	32468	
5787	0	32080	
5788	0	32217	
5789	0	32588	
5790	0	32792	
5791	0	32936	
5792	0	33172	
5793	0	33272	
5794	0	33272	
5795	0	33184	
5796	0	33144	
5797	0	33024	
5798	0	32964	
5799	0	32820	
5800	0	32704	
5801	0	32608	
5802	0	32636	
5803	0	32688	
5804	0	32668	
5805	0	32728	
5806	0	32764	
5807	0	32657	
5808	0	32644	
5809	0	32676	
5810	0	32774	
5811	0	32804	
5812	0	32812	
5813	0	32840	
5814	0	32856	
5815	0	32768	
5816	0	32756	
5817	0	32696	
5818	0	32718	
5819	0	32648	
5820	0	32629	
5821	0	32615	
5822	0	32676	
5823	0	32748	
5824	0	32748	
5825	0	32776	
5826	0	32804	
5827	0	32840	
5828	0	32880	
5829	0	32844	
5830	0	32852	
5831	0	32828	
5832	0	32826	
5833	0	32892	
5834	0	32800	
5835	0	32833	
5836	0	32816	
5837	0	32756	
5838	0	32796	
5839	0	32700	
5840	0	32616	
5841	0	32621	
5842	0	32572	
5843	0	32640	
5844	0	32724	
5845	0	32808	
5846	0	32832	
5847	0	32928	
5848	0	32876	
5849	0	32912	
5850	0	32884	
5851	0	32812	
5852	0	32800	
5853	0	32804	
5854	0	32826	
5855	0	32880	
5856	0	32773	
5857	0	32828	
5858	0	32828	
5859	0	32736	
5860	0	32549	
5861	0	32604	
5862	0	32608	
5863	0	32780	
5864	0	32768	
5865	0	32770	
5866	0	32794	
5867	0	32816	
5868	0	32820	
5869	0	32812	
5870	0	32844	
5871	0	32806	
5872	0	32884	
5873	0	32904	
5874	0	32873	
5875	0	32848	
5876	0	32760	
5877	0	32704	
5878	0	32825	
5879	0	32660	
5880	0	32680	
5881	0	32640	
5882	0	32692	
5883	0	32704	
5884	0	32712	
5885	0	32824	
5886	0	32805	
5887	0	32816	
5888	0	32740	
5889	0	32800	
5890	0	32900	
5891	0	32837	
5892	0	32816	
5893	0	32869	
5894	0	32864	
5895	0	32824	
5896	0	32796	
5897	0	32796	
5898	0	32800	
5899	0	32636	
5900	0	32580	
5901	0	32684	
5902	0	32704	
5903	0	32756	
5904	0	32724	
5905	0	32832	
5906	0	32800	
5907	0	32844	
5908	0	32749	
5909	0	32736	
5910	0	32840	
5911	0	32821	
5912	0	32840	
5913	0	32929	
5914	0	32800	
5915	0	32820	
5916	0	32740	
5917	0	32780	
5918	0	32812	
5919	0	32726	
5920	0	32692	
5921	0	32696	
5922	0	32737	
5923	0	32736	
5924	0	32820	
5925	0	32760	
5926	0	32782	
5927	0	32796	
5928	0	32769	
5929	0	32780	
5930	0	32876	
5931	0	32809	
5932	0	32816	
5933	0	32868	
5934	0	32830	
5935	0	32816	
5936	0	32781	
5937	0	32776	
5938	0	32732	
5939	0	32660	
5940	0	32680	
5941	0	32712	
5942	0	32690	
5943	0	32800	
5944	0	32788	
5945	0	32838	
5946	0	32780	
5947	0	32812	
5948	0	32792	
5949	0	32832	
5950	0	32880	
5951	0	32844	
5952	0	32820	
5953	0	32840	
5954	0	32860	
5955	0	32764	
5956	0	32740	
5957	0	32668	
5958	0	32757	
5959	0	32652	
5960	0	32608	
5961	0	32704	
5962	0	32676	
5963	0	32832	
5964	0	32884	
5965	0	32876	
5966	0	32784	
5967	0	32796	
5968	0	32768	
5969	0	32760	
5970	0	32752	
5971	0	32804	
5972	0	32844	
5973	0	32888	
5974	0	32828	
5975	0	32696	
5976	0	32778	
5977	0	32744	
5978	0	32764	
5979	0	32704	
5980	0	32576	
5981	0	32644	
5982	0	32668	
5983	0	32836	
5984	0	32788	
5985	0	32832	
5986	0	32788	
5987	0	32832	
5988	0	32824	
5989	0	32860	
5990	0	32776	
5991	0	32864	
5992	0	32900	
5993	0	32852	
5994	0	32765	
5995	0	32608	
5996	0	32164	
5997	0	31768	
5998	0	31220	
5999	0	30880	
6000	0	31616	
6001	0	32656	
6002	0	33552	
6003	0	34244	
6004	0	34640	
6005	0	34720	
6006	0	34528	
6007	0	34196	
6008	0	33768	
6009	0	33380	
6010	0	32988	
6011	0	32736	
6012	0	32604	
6013	0	32444	
6014	0	32316	
6015	0	32284	
6016	0	32296	
6017	0	32388	
6018	0	32356	
6019	0	32336	
6020	0	32404	
6021	0	32356	
6022	0	32368	
6023	0	32562	
6024	0	32592	
6025	0	32668	
6026	0	32668	
6027	0	32680	
6028	0	32712	
6029	0	32768	
6030	0	32792	
6031	0	32821	
6032	0	32852	
6033	0	32880	
6034	0	32820	
6035	0	32764	
6036	0	32728	
6037	0	32772	
6038	0	32764	
6039	0	32681	
6040	0	32700	
6041	0	32676	
6042	0	32732	
6043	0	32716	
6044	0	32804	
6045	0	32840	
6046	0	32809	
6047	0	32852	
6048	0	32812	
6049	0	32789	
6050	0	32880	
6051	0	32868	
6052	0	32877	
6053	0	32945	
6054	0	32824	
6055	0	32822	
6056	0	32804	
6057	0	32708	
6058	0	32752	
6059	0	32612	
6060	0	32644	
6061	0	32616	
6062	0	32668	
6063	0	32680	
6064	0	32592	
6065	0	32736	
6066	0	32776	
6067	0	32812	
6068	0	32881	
6069	0	33004	
6070	0	33116	
6071	0	33024	
6072	0	33066	
6073	0	33032	
6074	0	32904	
6075	0	32792	
6076	0	32759	
6077	0	32668	
6078	0	32652	
6079	0	32628	
6080	0	32536	
6081	0	32576	
6082	0	32574	
6083	0	32620	
6084	0	32764	
6085	0	32812	
6086	0	32768	
6087	0	32812	
6088	0	32876	
6089	0	32848	
6090	0	32836	
6091	0	32820	
6092	0	32840	
6093	0	32944	
6094	0	32852	
6095	0	32836	
6096	0	32760	
6097	0	32752	
6098	0	32736	
6099	0	32636	
6100	0	32588	
6101	0	32652	
6102	0	32744	
6103	0	32756	
6104	0	32776	
6105	0	32852	
6106	0	32808	
6107	0	32865	
6108	0	32820	
6109	0	32912	
6110	0	32884	
6111	0	32864	
6112	0	32901	
6113	0	32933	
6114	0	32908	
6115	0	32796	
6116	0	32765	
6117	0	32741	
6118	0	32684	
6119	0	32672	
6120	0	32648	
6121	0	32692	
6122	0	32636	
6123	0	32692	
6124	0	32720	
6125	0	32804	
6126	0	32752	
6127	0	32748	
6128	0	32740	
6129	0	32776	
6130	0	32792	
6131	0	32832	
6132	0	32868	
6133	0	32872	
6134	0	32784	
6135	0	32796	
6136	0	32778	
6137	0	32749	
6138	0	32688	
6139	0	32748	
6140	0	32688	
6141	0	32670	
6142	0	32732	
6143	0	32744	
6144	0	32720	
6145	0	32728	
6146	0	32801	
6147	0	32824	
6148	0	32808	
6149	0	32856	
6150	0	32852	
6151	0	32840	
6152	0	32928	
6153	0	32888	
6154	0	32868	
6155	0	32772	
6156	0	32780	
6157	0	32708	
6158	0	32670	
6159	0	32708	
6160	0	32670	
6161	0	32680	
6162	0	32676	
6163	0	32740	
6164	0	32756	
6165	0	32803	
6166	0	32724	
6167	0	32800	
6168	0	32852	
6169	0	32809	
6170	0	32836	
6171	0	32896	
6172	0	32964	
6173	0	32960	
6174	0	32876	
6175	0	32782	
6176	0	32752	
6177	0	32720	
6178	0	32700	
6179	0	32628	
6180	0	32596	
6181	0	32676	
6182	0	32629	
6183	0	32792	
6184	0	32852	
6185	0	32792	
6186	0	32792	
6187	0	32828	
6188	0	32828	
6189	0	32768	
6190	0	32788	
6191	0	32836	
6192	0	32880	
6193	0	32952	
6194	0	32964	
6195	0	32844	
6196	0	32780	
6197	0	32764	
6198	0	32640	
6199	0	32628	
6200	0	32596	
6201	0	32696	
6202	0	32796	
6203	0	32868	
6204	0	32928	
6205	0	32869	
6206	0	32804	
6207	0	32756	
6208	0	32740	
6209	0	32772	
6210	0	32832	
6211	0	32784	
6212	0	32860	
6213	0	32892	
6214	0	32856	
6215	0	32716	
6216	0	32644	
6217	0	32692	
6218	0	32636	
6219	0	32620	
6220	0	32613	
6221	0	32608	
6222	0	32680	
6223	0	32728	
6224	0	32765	
6225	0	32776	
6226	0	32792	
6227	0	32812	
6228	0	32768	
6229	0	32812	
6230	0	32808	
6231	0	32848	
6232	0	32924	
6233	0	32892	
6234	0	32932	
6235	0	32880	
6236	0	32760	
6237	0	32824	
6238	0	32816	
6239	0	32726	
6240	0	32720	
6241	0	32705	
6242	0	32740	
6243	0	32724	
6244	0	32812	
6245	0	32824	
6246	0	32768	
6247	0	32764	
6248	0	32757	
6249	0	32760	
6250	0	32848	
6251	0	32760	
6252	0	32910	
6253	0	32908	
6254	0	32908	
6255	0	32848	
6256	0	32800	
6257	0	32764	
6258	0	32708	
6259	0	32596	
6260	0	32576	
6261	0	32638	
6262	0	32656	
6263	0	32660	
6264	0	32544	
6265	0	32524	
6266	0	32620	
6267	0	32784	
6268	0	32836	
6269	0	32936	
6270	0	33028	
6271	0	33044	
6272	0	33120	
6273	0	33144	
6274	0	33037	
6275	0	32984	
6276	0	32904	
6277	0	32841	
6278	0	32724	
6279	0	32696	
6280	0	32580	
6281	0	32532	
6282	0	32660	
6283	0	32612	
6284	0	32670	
6285	0	32680	
6286	0	32708	
6287	0	32684	
6288	0	32814	
6289	0	32828	
6290	0	32812	
6291	0	32805	
6292	0	32872	
6293	0	32892	
6294	0	32908	
6295	0	32744	
6296	0	32800	
6297	0	32808	
6298	0	32620	
6299	0	32646	
6300	0	32596	
6301	0	32636	
6302	0	32772	
6303	0	32796	
6304	0	32824	
6305	0	32776	
6306	0	32780	
6307	0	32853	
6308	0	32749	
6309	0	32860	
6310	0	32834	
6311	0	32881	
6312	0	33004	
6313	0	32924	
6314	0	32892	
6315	0	32776	
6316	0	32728	
6317	0	32796	
6318	0	32712	
6319	0	32528	
6320	0	32468	
6321	0	32536	
6322	0	32620	
6323	0	32740	
6324	0	32832	
6325	0	32902	
6326	0	32948	
6327	0	32948	
6328	0	32944	
6329	0	32854	
6330	0	32844	
6331	0	32834	
6332	0	32880	
6333	0	32910	
6334	0	32852	
6335	0	32832	
6336	0	32780	
6337	0	32752	
6338	0	32704	
6339	0	32684	
6340	0	32632	
6341	0	32640	
6342	0	32685	
6343	0	32792	
6344	0	32740	
6345	0	32832	
6346	0	32800	
6347	0	32876	
6348	0	32792	
6349	0	32788	
6350	0	32884	
6351	0	32908	
6352	0	32884	
6353	0	32812	
6354	0	32861	
6355	0	32748	
6356	0	32704	
6357	0	32712	
6358	0	32704	
6359	0	32628	
6360	0	32632	
6361	0	32692	
6362	0	32672	
6363	0	32724	
6364	0	32812	
6365	0	32784	
6366	0	32776	
6367	0	32840	
6368	0	32800	
6369	0	32852	
6370	0	32832	
6371	0	32892	
6372	0	32894	
6373	0	32904	
6374	0	32852	
6375	0	32832	
6376	0	32804	
6377	0	32732	
6378	0	32749	
6379	0	32600	
6380	0	32572	
6381	0	32624	
6382	0	32664	
6383	0	32716	
6384	0	32760	
6385	0	32820	
6386	0	32816	
6387	0	32800	
6388	0	32776	
6389	0	32840	
6390	0	32924	
6391	0	32824	
6392	0	32908	
6393	0	32900	
6394	0	32912	
6395	0	32844	
6396	0	32804	
6397	0	32766	
6398	0	32720	
6399	0	32720	
6400	0	32652	
6401	0	32644	
6402	0	32668	
6403	0	32680	
6404	0	32732	
6405	0	32712	
6406	0	32788	
6407	0	32840	
6408	0	32736	
6409	0	32895	
6410	0	32824	
6411	0	32856	
6412	0	32932	
6413	0	32904	
6414	0	32824	
6415	0	32772	
6416	0	32804	
6417	0	32772	
6418	0	32708	
6419	0	32613	
6420	0	32364	
6421	0	32288	
6422	0	32420	
6423	0	32588	
6424	0	32724	
6425	0	32892	
6426	0	32976	
6427	0	32984	
6428	0	33108	
6429	0	33216	
6430	0	33268	
6431	0	33132	
6432	0	33112	
6433	0	33068	
6434	0	32928	
6435	0	32829	
6436	0	32740	
6437	0	32620	
6438	0	32622	
6439	0	32532	
6440	0	32452	
6441	0	32452	
6442	0	32536	
6443	0	32572	
6444	0	32600	
6445	0	32612	
6446	0	32692	
6447	0	32696	
6448	0	32796	
6449	0	32912	
6450	0	33020	
6451	0	32944	
6452	0	32992	
6453	0	32968	
6454	0	32916	
6455	0	32760	
6456	0	32752	
6457	0	32704	
6458	0	32668	
6459	0	32604	
6460	0	32601	
6461	0	32645	
6462	0	32660	
6463	0	32702	
6464	0	32712	
6465	0	32800	
6466	0	32800	
6467	0	32812	
6468	0	32812	
6469	0	32844	
6470	0	32916	
6471	0	32812	
6472	0	32840	
6473	0	32916	
6474	0	32892	
6475	0	32780	
6476	0	32728	
6477	0	32687	
6478	0	32781	
6479	0	32640	
6480	0	32656	
6481	0	32656	
6482	0	32669	
6483	0	32826	
6484	0	32792	
6485	0	32824	
6486	0	32808	
6487	0	32828	
6488	0	32748	
6489	0	32852	
6490	0	32876	
6491	0	32868	
6492	0	32924	
6493	0	32869	
6494	0	32828	
6495	0	32730	
6496	0	32764	
6497	0	32800	
6498	0	32728	
6499	0	32677	
6500	0	32648	
6501	0	32673	
6502	0	32736	
6503	0	32756	
6504	0	32824	
6505	0	32824	
6506	0	32848	
6507	0	32852	
6508	0	32812	
6509	0	32872	
6510	0	32786	
6511	0	32864	
6512	0	32908	
6513	0	32900	
6514	0	32828	
6515	0	32804	
6516	0	32741	
6517	0	32665	
6518	0	32720	
6519	0	32597	
6520	0	32652	
6521	0	32656	
6522	0	32676	
6523	0	32724	
6524	0	32804	
6525	0	32736	
6526	0	32824	
6527	0	32732	
6528	0	32853	
6529	0	32836	
6530	0	32960	
6531	0	32924	
6532	0	32860	
6533	0	32936	
6534	0	32792	
6535	0	32860	
6536	0	32788	
6537	0	32736	
6538	0	32732	
6539	0	32628	
6540	0	32628	
6541	0	32628	
6542	0	32684	
6543	0	32705	
6544	0	32756	
6545	0	32821	
6546	0	32828	
6547	0	32852	
6548	0	32808	
6549	0	32821	
6550	0	32840	
6551	0	32856	
6552	0	32892	
6553	0	32879	
6554	0	32840	
6555	0	32797	
6556	0	32840	
6557	0	32764	
6558	0	32684	
6559	0	32700	
6560	0	32656	
6561	0	32616	
6562	0	32652	
6563	0	32724	
6564	0	32832	
6565	0	32816	
6566	0	32848	
6567	0	32808	
6568	0	32848	
6569	0	32840	
6570	0	32820	
6571	0	32869	
6572	0	32872	
6573	0	33008	
6574	0	32860	
6575	0	32776	
6576	0	32744	
6577	0	32748	
6578	0	32656	
6579	0	32677	
6580	0	32628	
6581	0	32652	
6582	0	32772	
6583	0	32704	
6584	0	32812	
6585	0	32786	
6586	0	32804	
6587	0	32857	
6588	0	32836	
6589	0	32840	
6590	0	32828	
6591	0	32844	
6592	0	32872	
6593	0	32924	
6594	0	32908	
6595	0	32809	
6596	0	32708	
6597	0	32712	
6598	0	32688	
6599	0	32630	
6600	0	32652	
6601	0	32612	
6602	0	32633	
6603	0	32704	
6604	0	32748	
6605	0	32844	
6606	0	32860	
6607	0	32813	
6608	0	32892	
6609	0	32820	
6610	0	32868	
6611	0	32869	
6612	0	32948	
6613	0	32888	
6614	0	32832	
6615	0	32732	
6616	0	32788	
6617	0	32744	
6618	0	32700	
6619	0	32692	
6620	0	32672	
6621	0	32716	
6622	0	32760	
6623	0	32690	
6624	0	32836	
6625	0	32828	
6626	0	32784	
6627	0	32824	
6628	0	32817	
6629	0	32804	
6630	0	32868	
6631	0	32832	
6632	0	32908	
6633	0	32908	
6634	0	32848	
6635	0	32772	
6636	0	32780	
6637	0	32768	
6638	0	32728	
6639	0	32644	
6640	0	32584	
6641	0	32604	
6642	0	32644	
6643	0	32697	
6644	0	32769	
6645	0	32804	
6646	0	32804	
6647	0	32784	
6648	0	32860	
6649	0	32848	
6650	0	32912	
6651	0	32862	
6652	0	32928	
6653	0	32876	
6654	0	32832	
6655	0	32808	
6656	0	32788	
6657	0	32732	
6658	0	32676	
6659	0	32704	
6660	0	32656	
6661	0	32676	
6662	0	32676	
6663	0	32744	
6664	0	32808	
6665	0	32796	
6666	0	32816	
6667	0	32836	
6668	0	32812	
6669	0	32845	
6670	0	32861	
6671	0	32912	
6672	0	32900	
6673	0	32876	
6674	0	32876	
6675	0	32812	
6676	0	32732	
6677	0	32748	
6678	0	32716	
6679	0	32688	
6680	0	32629	
6681	0	32612	
6682	0	32685	
6683	0	32720	
6684	0	32693	
6685	0	32756	
6686	0	32846	
6687	0	32812	
6688	0	32844	
6689	0	32796	
6690	0	32828	
6691	0	32868	
6692	0	32902	
6693	0	32893	
6694	0	32824	
6695	0	32852	
6696	0	32768	
6697	0	32728	
6698	0	32760	
6699	0	32672	
6700	0	32592	
6701	0	32663	
6702	0	32688	
6703	0	32712	
6704	0	32820	
6705	0	32804	
6706	0	32848	
6707	0	32800	
6708	0	32788	
6709	0	32784	
6710	0	32860	
6711	0	32816	
6712	0	32896	
6713	0	32877	
6714	0	32804	
6715	0	32836	
6716	0	32760	
6717	0	32748	
6718	0	32660	
6719	0	32600	
6720	0	32632	
6721	0	32740	
6722	0	32649	
6723	0	32788	
6724	0	32805	
6725	0	32804	
6726	0	32836	
6727	0	32826	
6728	0	32840	
6729	0	32776	
6730	0	32808	
6731	0	32860	
6732	0	32940	
6733	0	32888	
6734	0	32804	
6735	0	32774	
6736	0	32756	
6737	0	32724	
6738	0	32704	
6739	0	32684	
6740	0	32600	
6741	0	32600	
6742	0	32716	
6743	0	32764	
6744	0	32776	
6745	0	32780	
6746	0	32780	
6747	0	32784	
6748	0	32832	
6749	0	32840	
6750	0	32864	
6751	0	32952	
6752	0	32924	
6753	0	32960	
6754	0	32832	
6755	0	32788	
6756	0	32716	
6757	0	32744	
6758	0	32684	
6759	0	32648	
6760	0	32640	
6761	0	32648	
6762	0	32668	
6763	0	32737	
6764	0	32742	
6765	0	32856	
6766	0	32834	
6767	0	32836	
6768	0	32824	
6769	0	32868	
6770	0	32816	
6771	0	32872	
6772	0	32852	
6773	0	32918	
6774	0	32796	
6775	0	32732	
6776	0	32828	
6777	0	32776	
6778	0	32672	
6779	0	32676	
6780	0	32684	
6781	0	32652	
6782	0	32700	
6783	0	32720	
6784	0	32797	
6785	0	32800	
6786	0	32741	
6787	0	32800	
6788	0	32848	
6789	0	32844	
6790	0	32816	
6791	0	32872	
6792	0	32888	
6793	0	32944	
6794	0	32804	
6795	0	32808	
6796	0	32712	
6797	0	32804	
6798	0	32712	
6799	0	32660	
6800	0	32612	
6801	0	32664	
6802	0	32676	
6803	0	32720	
6804	0	32732	
6805	0	32782	
6806	0	32804	
6807	0	32792	
6808	0	32844	
6809	0	32864	
6810	0	32868	
6811	0	32928	
6812	0	32882	
6813	0	32864	
6814	0	32720	
6815	0	32724	
6816	0	32788	
6817	0	32756	
6818	0	32756	
6819	0	32680	
6820	0	32624	
6821	0	32672	
6822	0	32685	
6823	0	32744	
6824	0	32756	
6825	0	32760	
6826	0	32852	
6827	0	32856	
6828	0	32844	
6829	0	32808	
6830	0	32868	
6831	0	32856	
6832	0	32888	
6833	0	32880	
6834	0	32880	
6835	0	32804	
6836	0	32740	
6837	0	32676	
6838	0	32692	
6839	0	32668	
6840	0	32660	
6841	0	32664	
6842	0	32708	
6843	0	32728	
6844	0	32840	
6845	0	32844	
6846	0	32764	
6847	0	32768	
6848	0	32804	
6849	0	32780	
6850	0	32900	
6851	0	32864	
6852	0	32956	
6853	0	32964	
6854	0	32820	
6855	0	32764	
6856	0	32760	
6857	0	32744	
6858	0	32648	
6859	0	32640	
6860	0	32648	
6861	0	32700	
6862	0	32732	
6863	0	32694	
6864	0	32686	
6865	0	32832	
6866	0	32912	
6867	0	32870	
6868	0	32932	
6869	0	32856	
6870	0	32837	
6871	0	32848	
6872	0	32942	
6873	0	32892	
6874	0	32780	
6875	0	32780	
6876	0	32781	
6877	0	32756	
6878	0	32628	
6879	0	32652	
6880	0	32632	
6881	0	32649	
6882	0	32694	
6883	0	32668	
6884	0	32788	
6885	0	32824	
6886	0	32800	
6887	0	32801	
6888	0	32861	
6889	0	32772	
6890	0	32804	
6891	0	32848	
6892	0	32932	
6893	0	32956	
6894	0	32836	
6895	0	32752	
6896	0	32728	
6897	0	32688	
6898	0	32702	
6899	0	32633	
6900	0	32612	
6901	0	32732	
6902	0	32668	
6903	0	32788	
6904	0	32736	
6905	0	32780	
6906	0	32808	
6907	0	32868	
6908	0	32812	
6909	0	32852	
6910	0	32868	
6911	0	32876	
6912	0	32924	
6913	0	32956	
6914	0	32849	
6915	0	32764	
6916	0	32712	
6917	0	32686	
6918	0	32697	
6919	0	32646	
6920	0	32652	
6921	0	32677	
6922	0	32663	
6923	0	32704	
6924	0	32796	
6925	0	32804	
6926	0	32852	
6927	0	32812	
6928	0	32824	
6929	0	32862	
6930	0	32860	
6931	0	32868	
6932	0	32954	
6933	0	32948	
6934	0	32888	
6935	0	32832	
6936	0	32808	
6937	0	32768	
6938	0	32664	
6939	0	32724	
6940	0	32588	
6941	0	32612	
6942	0	32700	
6943	0	32764	
6944	0	32784	
6945	0	32760	
6946	0	32756	
6947	0	32828	
6948	0	32836	
6949	0	32848	
6950	0	32896	
6951	0	32876	
6952	0	32948	
6953	0	32884	
6954	0	32856	
6955	0	32828	
6956	0	32700	
6957	0	32712	
6958	0	32656	
6959	0	32624	
6960	0	32652	
6961	0	32645	
6962	0	32676	
6963	0	32748	
6964	0	32744	
6965	0	32774	
6966	0	32804	
6967	0	32832	
6968	0	32840	
6969	0	32805	
6970	0	32864	
6971	0	32860	
6972	0	32876	
6973	0	32900	
6974	0	32792	
6975	0	32884	
6976	0	32821	
6977	0	32668	
6978	0	32684	
6979	0	32664	
6980	0	32612	
6981	0	32652	
6982	0	32628	
6983	0	32736	
6984	0	32796	
6985	0	32800	
6986	0	32748	
6987	0	32837	
6988	0	32784	
6989	0	32840	
6990	0	32840	
6991	0	32810	
6992	0	32936	
6993	0	32975	
6994	0	32812	
6995	0	32808	
6996	0	32748	
6997	0	32736	
6998	0	32656	
6999	0	32540	
7000	0	32604	
7001	0	32728	
7002	0	32780	
7003	0	32784	
7004	0	32840	
7005	0	32776	
7006	0	32832	
7007	0	32788	
7008	0	32808	
7009	0	32900	
7010	0	32808	
7011	0	32848	
7012	0	32920	
7013	0	32828	
7014	0	32852	
7015	0	32772	
7016	0	32776	
7017	0	32744	
7018	0	32812	
7019	0	32714	
7020	0	32694	
7021	0	32688	
7022	0	32692	
7023	0	32709	
7024	0	32652	
7025	0	32848	
7026	0	32784	
7027	0	32800	
7028	0	32864	
7029	0	32828	
7030	0	32822	
7031	0	32824	
7032	0	32888	
7033	0	32968	
7034	0	32812	
7035	0	32784	
7036	0	32729	
7037	0	32768	
7038	0	32692	
7039	0	32620	
7040	0	32628	
7041	0	32680	
7042	0	32656	
7043	0	32758	
7044	0	32824	
7045	0	32873	
7046	0	32860	
7047	0	32788	
7048	0	32870	
7049	0	32864	
7050	0	32792	
7051	0	32832	
7052	0	32893	
7053	0	32856	
7054	0	32828	
7055	0	32832	
7056	0	32886	
7057	0	32844	
7058	0	32676	
7059	0	32616	
7060	0	32600	
7061	0	32580	
7062	0	32668	
7063	0	32700	
7064	0	32748	
7065	0	32776	
7066	0	32832	
7067	0	32836	
7068	0	32836	
7069	0	32848	
7070	0	32848	
7071	0	32816	
7072	0	32840	
7073	0	32885	
7074	0	32800	
7075	0	32764	
7076	0	32724	
7077	0	32712	
7078	0	32656	
7079	0	32708	
7080	0	32644	
7081	0	32672	
7082	0	32668	
7083	0	32760	
7084	0	32780	
7085	0	32800	
7086	0	32872	
7087	0	32812	
7088	0	32788	
7089	0	32800	
7090	0	32841	
7091	0	32892	
7092	0	32920	
7093	0	32924	
7094	0	32844	
7095	0	32712	
7096	0	32730	
7097	0	32788	
7098	0	32736	
7099	0	32620	
7100	0	32604	
7101	0	32580	
7102	0	32656	
7103	0	32740	
7104	0	32750	
7105	0	32792	
7106	0	32840	
7107	0	32836	
7108	0	32846	
7109	0	32824	
7110	0	32894	
7111	0	32928	
7112	0	32892	
7113	0	32844	
7114	0	32800	
7115	0	32836	
7116	0	32828	
7117	0	32737	
7118	0	32704	
7119	0	32668	
7120	0	32616	
7121	0	32608	
7122	0	32680	
7123	0	32728	
7124	0	32800	
7125	0	32808	
7126	0	32809	
7127	0	32844	
7128	0	32824	
7129	0	32812	
7130	0	32868	
7131	0	32840	
7132	0	32860	
7133	0	32858	
7134	0	32824	
7135	0	32768	
7136	0	32748	
7137	0	32732	
7138	0	32720	
7139	0	32592	
7140	0	32656	
7141	0	32668	
7142	0	32660	
7143	0	32745	
7144	0	32808	
7145	0	32736	
7146	0	32828	
7147	0	32828	
7148	0	32900	
7149	0	32880	
7150	0	32868	
7151	0	32808	
7152	0	32908	
7153	0	32956	
7154	0	32896	
7155	0	32798	
7156	0	32592	
7157	0	32352	
7158	0	32312	
7159	0	32428	
7160	0	32504	
7161	0	32296	
7162	0	32124	
7163	0	32388	
7164	0	32744	
7165	0	32932	
7166	0	33044	
7167	0	33252	
7168	0	33448	
7169	0	33496	
7170	0	32696	
7171	0	32720	
7172	0	33060	
7173	0	33432	
7174	0	33440	
7175	0	33456	
7176	0	33384	
7177	0	33412	
7178	0	33288	
7179	0	33052	
7180	0	32912	
7181	0	32704	
7182	0	31855	
7183	0	31264	
7184	0	30268	
7185	0	30368	
7186	0	31148	
7187	0	32332	
7188	0	33376	
7189	0	34160	
7190	0	34560	
7191	0	34784	
7192	0	34776	
7193	0	34428	
7194	0	33832	
7195	0	33360	
7196	0	32828	
7197	0	32572	
7198	0	32280	
7199	0	32092	
7200	0	32152	
7201	0	32164	
7202	0	32156	
7203	0	32216	
7204	0	32292	
7205	0	32308	
7206	0	32468	
7207	0	32552	
7208	0	32756	
7209	0	32740	
7210	0	32725	
7211	0	32840	
7212	0	32900	
7213	0	32928	
7214	0	32804	
7215	0	32776	
7216	0	32749	
7217	0	32752	
7218	0	32684	
7219	0	32672	
7220	0	32556	
7221	0	32672	
7222	0	32708	
7223	0	32704	
7224	0	32780	
7225	0	32832	
7226	0	32868	
7227	0	32844	
7228	0	32844	
7229	0	32928	
7230	0	32836	
7231	0	32916	
7232	0	32932	
7233	0	32952	
7234	0	32868	
7235	0	32744	
7236	0	32780	
7237	0	32720	
7238	0	32680	
7239	0	32640	
7240	0	32636	
7241	0	32689	
7242	0	32716	
7243	0	32756	
7244	0	32776	
7245	0	32772	
7246	0	32820	
7247	0	32824	
7248	0	32868	
7249	0	32848	
7250	0	32840	
7251	0	32848	
7252	0	32914	
7253	0	32816	
7254	0	32816	
7255	0	32696	
7256	0	32748	
7257	0	32636	
7258	0	32592	
7259	0	32588	
7260	0	32542	
7261	0	32548	
7262	0	32712	
7263	0	32792	
7264	0	32836	
7265	0	32800	
7266	0	32766	
7267	0	32806	
7268	0	32812	
7269	0	32816	
7270	0	32904	
7271	0	32884	
7272	0	32868	
7273	0	32964	
7274	0	32912	
7275	0	32833	
7276	0	32788	
7277	0	32744	
7278	0	32680	
7279	0	32660	
7280	0	32672	
7281	0	32596	
7282	0	32657	
7283	0	32692	
7284	0	32824	
7285	0	32856	
7286	0	32902	
7287	0	32864	
7288	0	32828	
7289	0	32836	
7290	0	32904	
7291	0	32824	
7292	0	32796	
7293	0	32884	
7294	0	32828	
7295	0	32884	
7296	0	32917	
7297	0	32849	
7298	0	32800	
7299	0	32660	
7300	0	32656	
7301	0	32604	
7302	0	32728	
7303	0	32772	
7304	0	32780	
7305	0	32765	
7306	0	32780	
7307	0	32865	
7308	0	32876	
7309	0	32824	
7310	0	32815	
7311	0	32876	
7312	0	32900	
7313	0	32848	
7314	0	32876	
7315	0	32760	
7316	0	32804	
7317	0	32797	
7318	0	32744	
7319	0	32668	
7320	0	32616	
7321	0	32632	
7322	0	32652	
7323	0	32720	
7324	0	32832	
7325	0	32872	
7326	0	32836	
7327	0	32760	
7328	0	32829	
7329	0	32792	
7330	0	32876	
7331	0	32868	
7332	0	32892	
7333	0	32912	
7334	0	32828	
7335	0	32796	
7336	0	32744	
7337	0	32752	
7338	0	32736	
7339	0	32708	
7340	0	32612	
7341	0	32620	
7342	0	32768	
7343	0	32708	
7344	0	32732	
7345	0	32800	
7346	0	32772	
7347	0	32808	
7348	0	32888	
7349	0	32872	
7350	0	32832	
7351	0	32844	
7352	0	32936	
7353	0	32916	
7354	0	32824	
7355	0	32876	
7356	0	32736	
7357	0	32698	
7358	0	32616	
7359	0	32676	
7360	0	32696	
7361	0	32756	
7362	0	32764	
7363	0	32852	
7364	0	32768	
7365	0	32772	
7366	0	32746	
7367	0	32820	
7368	0	32796	
7369	0	32820	
7370	0	32836	
7371	0	32804	
7372	0	32928	
7373	0	32960	
7374	0	32860	
7375	0	32749	
7376	0	32728	
7377	0	32700	
7378	0	32614	
7379	0	32645	
7380	0	32620	
7381	0	32664	
7382	0	32728	
7383	0	32700	
7384	0	32792	
7385	0	32820	
7386	0	32804	
7387	0	32808	
7388	0	32824	
7389	0	32768	
7390	0	32892	
7391	0	32860	
7392	0	32952	
7393	0	33004	
7394	0	32824	
7395	0	32772	
7396	0	32812	
7397	0	32760	
7398	0	32764	
7399	0	32634	
7400	0	32680	
7401	0	32661	
7402	0	32641	
7403	0	32744	
7404	0	32809	
7405	0	32832	
7406	0	32852	
7407	0	32749	
7408	0	32816	
7409	0	32840	
7410	0	32881	
7411	0	32840	
7412	0	32916	
7413	0	32913	
7414	0	32844	
7415	0	32788	
7416	0	32704	
7417	0	32752	
7418	0	32660	
7419	0	32620	
7420	0	32620	
7421	0	32708	
7422	0	32784	
7423	0	32741	
7424	0	32728	
7425	0	32796	
7426	0	32820	
7427	0	32792	
7428	0	32804	
7429	0	32836	
7430	0	32852	
7431	0	32878	
7432	0	32904	
7433	0	32896	
7434	0	32885	
7435	0	32780	
7436	0	32736	
7437	0	32740	
7438	0	32646	
7439	0	32604	
7440	0	32544	
7441	0	32656	
7442	0	32740	
7443	0	32740	
7444	0	32836	
7445	0	32754	
7446	0	32838	
7447	0	32844	
7448	0	32876	
7449	0	32820	
7450	0	32852	
7451	0	32824	
7452	0	32892	
7453	0	32932	
7454	0	32806	
7455	0	32788	
7456	0	32740	
7457	0	32784	
7458	0	32692	
7459	0	32664	
7460	0	32624	
7461	0	32656	
7462	0	32768	
7463	0	32792	
7464	0	32836	
7465	0	32776	
7466	0	32834	
7467	0	32748	
7468	0	32836	
7469	0	32816	
7470	0	32860	
7471	0	32937	
7472	0	32910	
7473	0	32928	
7474	0	32788	
7475	0	32720	
7476	0	32766	
7477	0	32760	
7478	0	32684	
7479	0	32620	
7480	0	32564	
7481	0	32636	
7482	0	32788	
7483	0	32780	
7484	0	32836	
7485	0	32831	
7486	0	32781	
7487	0	32804	
7488	0	32804	
7489	0	32836	
7490	0	32892	
7491	0	32848	
7492	0	32924	
7493	0	32916	
7494	0	32784	
7495	0	32792	
7496	0	32776	
7497	0	32785	
7498	0	32720	
7499	0	32596	
7500	0	32608	
7501	0	32660	
7502	0	32696	
7503	0	32792	
7504	0	32768	
7505	0	32772	
7506	0	32832	
7507	0	32820	
7508	0	32784	
7509	0	32812	
7510	0	32800	
7511	0	33012	
7512	0	32932	
7513	0	32868	
7514	0	32820	
7515	0	32712	
7516	0	32752	
7517	0	32808	
7518	0	32624	
7519	0	32584	
7520	0	32624	
7521	0	32688	
7522	0	32700	
7523	0	32808	
7524	0	32804	
7525	0	32801	
7526	0	32796	
7527	0	32772	
7528	0	32776	
7529	0	32780	
7530	0	32896	
7531	0	32900	
7532	0	32968	
7533	0	32896	
7534	0	32780	
7535	0	32812	
7536	0	32697	
7537	0	32688	
7538	0	32680	
7539	0	32644	
7540	0	32640	
7541	0	32688	
7542	0	32728	
7543	0	32729	
7544	0	32775	
7545	0	32804	
7546	0	32856	
7547	0	32784	
7548	0	32896	
7549	0	32880	
7550	0	32844	
7551	0	32900	
7552	0	32980	
7553	0	32948	
7554	0	32872	
7555	0	32708	
7556	0	32776	
7557	0	32760	
7558	0	32688	
7559	0	32636	
7560	0	32588	
7561	0	32628	
7562	0	32684	
7563	0	32700	
7564	0	32784	
7565	0	32820	
7566	0	32812	
7567	0	32804	
7568	0	32836	
7569	0	32824	
7570	0	32836	
7571	0	32900	
7572	0	32904	
7573	0	32879	
7574	0	32858	
7575	0	32768	
7576	0	32732	
7577	0	32688	
7578	0	32668	
7579	0	32692	
7580	0	32652	
7581	0	32606	
7582	0	32740	
7583	0	32768	
7584	0	32772	
7585	0	32798	
7586	0	32796	
7587	0	32788	
7588	0	32802	
7589	0	32808	
7590	0	32884	
7591	0	32933	
7592	0	32900	
7593	0	32964	
7594	0	32892	
7595	0	32720	
7596	0	32680	
7597	0	32797	
7598	0	32645	
7599	0	32624	
7600	0	32653	
7601	0	32640	
7602	0	32681	
7603	0	32780	
7604	0	32864	
7605	0	32844	
7606	0	32840	
7607	0	32792	
7608	0	32820	
7609	0	32817	
7610	0	32792	
7611	0	32836	
7612	0	32932	
7613	0	32904	
7614	0	32720	
7615	0	32780	
7616	0	32780	
7617	0	32728	
7618	0	32632	
7619	0	32616	
7620	0	32576	
7621	0	32647	
7622	0	32708	
7623	0	32716	
7624	0	32852	
7625	0	32804	
7626	0	32820	
7627	0	32780	
7628	0	32836	
7629	0	32864	
7630	0	32944	
7631	0	32940	
7632	0	32908	
7633	0	32869	
7634	0	32840	
7635	0	32805	
7636	0	32760	
7637	0	32760	
7638	0	32704	
7639	0	32700	
7640	0	32576	
7641	0	32652	
7642	0	32684	
7643	0	32712	
7644	0	32857	
7645	0	32871	
7646	0	32820	
7647	0	32844	
7648	0	32848	
7649	0	32836	
7650	0	32892	
7651	0	32748	
7652	0	32876	
7653	0	32860	
7654	0	32794	
7655	0	32733	
7656	0	32781	
7657	0	32844	
7658	0	32688	
7659	0	32644	
7660	0	32636	
7661	0	32616	
7662	0	32692	
7663	0	32630	
7664	0	32708	
7665	0	32752	
7666	0	32770	
7667	0	32826	
7668	0	32828	
7669	0	32812	
7670	0	32893	
7671	0	32932	
7672	0	32929	
7673	0	32918	
7674	0	32858	
7675	0	32760	
7676	0	32744	
7677	0	32712	
7678	0	32692	
7679	0	32641	
7680	0	32592	
7681	0	32580	
7682	0	32645	
7683	0	32788	
7684	0	32865	
7685	0	32924	
7686	0	32868	
7687	0	32781	
7688	0	32824	
7689	0	32876	
7690	0	32840	
7691	0	32920	
7692	0	32885	
7693	0	32892	
7694	0	32820	
7695	0	32744	
7696	0	32698	
7697	0	32764	
7698	0	32622	
7699	0	32612	
7700	0	32622	
7701	0	32628	
7702	0	32750	
7703	0	32736	
7704	0	32796	
7705	0	32810	
7706	0	32848	
7707	0	32793	
7708	0	32844	
7709	0	32828	
7710	0	32932	
7711	0	32924	
7712	0	32892	
7713	0	32848	
7714	0	32776	
7715	0	32716	
7716	0	32752	
7717	0	32760	
7718	0	32716	
7719	0	32640	
7720	0	32613	
7721	0	32645	
7722	0	32700	
7723	0	32748	
7724	0	32864	
7725	0	32860	
7726	0	32804	
7727	0	32862	
7728	0	32808	
7729	0	32824	
7730	0	32920	
7731	0	32836	
7732	0	32924	
7733	0	32868	
7734	0	32828	
7735	0	32716	
7736	0	32724	
7737	0	32756	
7738	0	32721	
7739	0	32616	
7740	0	32684	
7741	0	32676	
7742	0	32785	
7743	0	32736	
7744	0	32808	
7745	0	32792	
7746	0	32820	
7747	0	32760	
7748	0	32784	
7749	0	32828	
7750	0	32828	
7751	0	32904	
7752	0	32834	
7753	0	32860	
7754	0	32868	
7755	0	32744	
7756	0	32824	
7757	0	32688	
7758	0	32696	
7759	0	32633	
7760	0	32636	
7761	0	32620	
7762	0	32730	
7763	0	32734	
7764	0	32788	
7765	0	32825	
7766	0	32832	
7767	0	32775	
7768	0	32868	
7769	0	32884	
7770	0	32852	
7771	0	32860	
7772	0	32880	
7773	0	32852	
7774	0	32788	
7775	0	32848	
7776	0	32780	
7777	0	32792	
7778	0	32720	
7779	0	32668	
7780	0	32580	
7781	0	32696	
7782	0	32760	
7783	0	32684	
7784	0	32750	
7785	0	32800	
7786	0	32705	
7787	0	32824	
7788	0	32801	
7789	0	32833	
7790	0	32868	
7791	0	32864	
7792	0	32924	
7793	0	32912	
7794	0	32804	
7795	0	32822	
7796	0	32725	
7797	0	32720	
7798	0	32708	
7799	0	32628	
7800	0	32600	
7801	0	32648	
7802	0	32720	
7803	0	32788	
7804	0	32736	
7805	0	32729	
7806	0	32708	
7807	0	32736	
7808	0	32846	
7809	0	32804	
7810	0	32884	
7811	0	32976	
7812	0	32892	
7813	0	32832	
7814	0	32658	
7815	0	32692	
7816	0	32708	
7817	0	32796	
7818	0	32724	
7819	0	32716	
7820	0	32740	
7821	0	32788	
7822	0	32600	
7823	0	32636	
7824	0	32764	
7825	0	32716	
7826	0	32632	
7827	0	32368	
7828	0	32560	
7829	0	32800	
7830	0	33052	
7831	0	33316	
7832	0	32984	
7833	0	32561	
7834	0	32656	
7835	0	32756	
7836	0	32524	
7837	0	32708	
7838	0	33020	
7839	0	33260	
7840	0	33588	
7841	0	33812	
7842	0	33781	
7843	0	33700	
7844	0	33484	
7845	0	33180	
7846	0	32784	
7847	0	32466	
7848	0	32336	
7849	0	32260	
7850	0	32244	
7851	0	32352	
7852	0	32360	
7853	0	32340	
7854	0	32432	
7855	0	32532	
7856	0	32628	
7857	0	32644	
7858	0	32636	
7859	0	32564	
7860	0	32568	
7861	0	32692	
7862	0	32720	
7863	0	32684	
7864	0	32756	
7865	0	32764	
7866	0	32780	
7867	0	32808	
7868	0	32824	
7869	0	32862	
7870	0	32864	
7871	0	32860	
7872	0	32916	
7873	0	32944	
7874	0	32856	
7875	0	32832	
7876	0	32776	
7877	0	32724	
7878	0	32712	
7879	0	32632	
7880	0	32612	
7881	0	32684	
7882	0	32740	
7883	0	32796	
7884	0	32808	
7885	0	32812	
7886	0	32877	
7887	0	32778	
7888	0	32772	
7889	0	32902	
7890	0	32876	
7891	0	32881	
7892	0	32936	
7893	0	32912	
7894	0	32844	
7895	0	32804	
7896	0	32756	
7897	0	32713	
7898	0	32684	
7899	0	32676	
7900	0	32580	
7901	0	32628	
7902	0	32764	
7903	0	32724	
7904	0	32788	
7905	0	32804	
7906	0	32784	
7907	0	32884	
7908	0	32864	
7909	0	32880	
7910	0	32828	
7911	0	32844	
7912	0	32928	
7913	0	32946	
7914	0	32788	
7915	0	32790	
7916	0	32832	
7917	0	32809	
7918	0	32672	
7919	0	32640	
7920	0	32600	
7921	0	32680	
7922	0	32724	
7923	0	32728	
7924	0	32828	
7925	0	32748	
7926	0	32770	
7927	0	32812	
7928	0	32792	
7929	0	32872	
7930	0	32876	
7931	0	32852	
7932	0	32956	
7933	0	32900	
7934	0	32844	
7935	0	32804	
7936	0	32733	
7937	0	32732	
7938	0	32654	
7939	0	32624	
7940	0	32588	
7941	0	32628	
7942	0	32688	
7943	0	32760	
7944	0	32784	
7945	0	32800	
7946	0	32801	
7947	0	32780	
7948	0	32864	
7949	0	32872	
7950	0	32860	
7951	0	32900	
7952	0	32972	
7953	0	32948	
7954	0	32796	
7955	0	32820	
7956	0	32840	
7957	0	32745	
7958	0	32692	
7959	0	32572	
7960	0	32678	
7961	0	32660	
7962	0	32732	
7963	0	32684	
7964	0	32788	
7965	0	32794	
7966	0	32732	
7967	0	32798	
7968	0	32856	
7969	0	32864	
7970	0	32896	
7971	0	32836	
7972	0	32920	
7973	0	32903	
7974	0	32774	
7975	0	32760	
7976	0	32756	
7977	0	32768	
7978	0	32692	
7979	0	32665	
7980	0	32576	
7981	0	32640	
7982	0	32720	
7983	0	32628	
7984	0	32676	
7985	0	32820	
7986	0	32856	
7987	0	32792	
7988	0	32901	
7989	0	32868	
7990	0	32913	
7991	0	32980	
7992	0	32960	
7993	0	32916	
7994	0	32845	
7995	0	32812	
7996	0	32780	
7997	0	32700	
7998	0	32668	
7999	0	32613	
8000	0	32612	
8001	0	32624	
8002	0	32676	
8003	0	32716	
8004	0	32772	
8005	0	32808	
8006	0	32736	
8007	0	32814	
8008	0	32764	
8009	0	32864	
8010	0	32808	
8011	0	32844	
8012	0	32952	
8013	0	32909	
8014	0	32836	
8015	0	32820	
8016	0	32752	
8017	0	32724	
8018	0	32668	
8019	0	32658	
8020	0	32581	
8021	0	32692	
8022	0	32776	
8023	0	32828	
8024	0	32836	
8025	0	32856	
8026	0	32789	
8027	0	32788	
8028	0	32788	
8029	0	32816	
8030	0	32856	
8031	0	32860	
8032	0	32852	
8033	0	32840	
8034	0	32800	
8035	0	32826	
8036	0	32708	
8037	0	32765	
8038	0	32752	
8039	0	32664	
8040	0	32648	
8041	0	32621	
8042	0	32728	
8043	0	32744	
8044	0	32820	
8045	0	32824	
8046	0	32749	
8047	0	32800	
8048	0	32789	
8049	0	32868	
8050	0	32864	
8051	0	32932	
8052	0	32928	
8053	0	32888	
8054	0	32756	
8055	0	32844	
8056	0	32812	
8057	0	32732	
8058	0	32685	
8059	0	32633	
8060	0	32600	
8061	0	32704	
8062	0	32668	
8063	0	32708	
8064	0	32780	
8065	0	32816	
8066	0	32812	
8067	0	32848	
8068	0	32864	
8069	0	32868	
8070	0	32840	
8071	0	32836	
8072	0	32869	
8073	0	32844	
8074	0	32874	
8075	0	32813	
8076	0	32788	
8077	0	32776	
8078	0	32670	
8079	0	32604	
8080	0	32608	
8081	0	32672	
8082	0	32652	
8083	0	32764	
8084	0	32800	
8085	0	32792	
8086	0	32804	
8087	0	32868	
8088	0	32864	
8089	0	32836	
8090	0	32888	
8091	0	32892	
8092	0	32869	
8093	0	32866	
8094	0	32812	
8095	0	32740	
8096	0	32716	
8097	0	32744	
8098	0	32716	
8099	0	32688	
8100	0	32645	
8101	0	32648	
8102	0	32772	
8103	0	32744	
8104	0	32788	
8105	0	32856	
8106	0	32880	
8107	0	32744	
8108	0	32856	
8109	0	32892	
8110	0	32864	
8111	0	32884	
8112	0	32878	
8113	0	32880	
8114	0	32816	
8115	0	32744	
8116	0	32752	
8117	0	32708	
8118	0	32704	
8119	0	32716	
8120	0	32668	
8121	0	32692	
8122	0	32724	
8123	0	32792	
8124	0	32788	
8125	0	32780	
8126	0	32796	
8127	0	32756	
8128	0	32856	
8129	0	32886	
8130	0	32880	
8131	0	32896	
8132	0	32884	
8133	0	32832	
8134	0	32828	
8135	0	32796	
8136	0	32704	
8137	0	32732	
8138	0	32708	
8139	0	32628	
8140	0	32644	
8141	0	32608	
8142	0	32781	
8143	0	32761	
8144	0	32780	
8145	0	32766	
8146	0	32764	
8147	0	32788	
8148	0	32872	
8149	0	32856	
8150	0	32860	
8151	0	32886	
8152	0	32940	
8153	0	32880	
8154	0	32830	
8155	0	32726	
8156	0	32718	
8157	0	32712	
8158	0	32668	
8159	0	32576	
8160	0	32524	
8161	0	32524	
8162	0	32604	
8163	0	32665	
8164	0	32858	
8165	0	32872	
8166	0	32896	
8167	0	32940	
8168	0	32972	
8169	0	32956	
8170	0	32960	
8171	0	33052	
8172	0	32984	
8173	0	32976	
8174	0	32868	
8175	0	32816	
8176	0	32748	
8177	0	32712	
8178	0	32600	
8179	0	32525	
8180	0	32628	
8181	0	32629	
8182	0	32704	
8183	0	32718	
8184	0	32708	
8185	0	32716	
8186	0	32784	
8187	0	32782	
8188	0	32864	
8189	0	32908	
8190	0	32932	
8191	0	32972	
8192	0	32884	
8193	0	32880	
8194	0	32784	
8195	0	32740	
8196	0	32668	
8197	0	32568	
8198	0	32660	
8199	0	32674	
8200	0	32614	
8201	0	32680	
8202	0	32732	
8203	0	32796	
8204	0	32836	
8205	0	32880	
8206	0	32852	
8207	0	32848	
8208	0	32860	
8209	0	32852	
8210	0	32871	
8211	0	32848	
8212	0	32932	
8213	0	32876	
8214	0	32848	
8215	0	32760	
8216	0	32748	
8217	0	32688	
8218	0	32680	
8219	0	32536	
8220	0	32612	
8221	0	32696	
8222	0	32744	
8223	0	32766	
8224	0	32772	
8225	0	32828	
8226	0	32800	
8227	0	32800	
8228	0	32876	
8229	0	32860	
8230	0	32864	
8231	0	32932	
8232	0	32884	
8233	0	32868	
8234	0	32792	
8235	0	32792	
8236	0	32775	
8237	0	32749	
8238	0	32617	
8239	0	32652	
8240	0	32560	
8241	0	32672	
8242	0	32688	
8243	0	32722	
8244	0	32780	
8245	0	32834	
8246	0	32820	
8247	0	32796	
8248	0	32820	
8249	0	32840	
8250	0	32844	
8251	0	32928	
8252	0	32972	
8253	0	32816	
8254	0	32864	
8255	0	32832	
8256	0	32764	
8257	0	32664	
8258	0	32684	
8259	0	32660	
8260	0	32592	
8261	0	32696	
8262	0	32724	
8263	0	32860	
8264	0	32856	
8265	0	32776	
8266	0	32812	
8267	0	32724	
8268	0	32780	
8269	0	32828	
8270	0	32848	
8271	0	32868	
8272	0	32868	
8273	0	32905	
8274	0	32860	
8275	0	32824	
8276	0	32692	
8277	0	32812	
8278	0	32732	
8279	0	32636	
8280	0	32652	
8281	0	32644	
8282	0	32728	
8283	0	32734	
8284	0	32808	
8285	0	32720	
8286	0	32820	
8287	0	32753	
8288	0	32764	
8289	0	32832	
8290	0	32856	
8291	0	32840	
8292	0	32952	
8293	0	32868	
8294	0	32752	
8295	0	32821	
8296	0	32796	
8297	0	32804	
8298	0	32695	
8299	0	32680	
8300	0	32757	
8301	0	32846	
8302	0	32784	
8303	0	32812	
8304	0	32780	
8305	0	32756	
8306	0	32772	
8307	0	32732	
8308	0	32760	
8309	0	32788	
8310	0	32804	
8311	0	32756	
8312	0	32868	
8313	0	32828	
8314	0	32756	
8315	0	32732	
8316	0	32732	
8317	0	32709	
8318	0	32664	
8319	0	32632	
8320	0	32644	
8321	0	32647	
8322	0	32712	
8323	0	32724	
8324	0	32792	
8325	0	32828	
8326	0	32789	
8327	0	32864	
8328	0	32804	
8329	0	32868	
8330	0	32908	
8331	0	32877	
8332	0	32996	
8333	0	32952	
8334	0	32820	
8335	0	32760	
8336	0	32748	
8337	0	32752	
8338	0	32708	
8339	0	32660	
8340	0	32652	
8341	0	32645	
8342	0	32644	
8343	0	32736	
8344	0	32820	
8345	0	32793	
8346	0	32840	
8347	0	32792	
8348	0	32820	
8349	0	32852	
8350	0	32857	
8351	0	32852	
8352	0	32872	
8353	0	32908	
8354	0	32808	
8355	0	32796	
8356	0	32698	
8357	0	32760	
8358	0	32638	
8359	0	32684	
8360	0	32636	
8361	0	32636	
8362	0	32700	
8363	0	32756	
8364	0	32780	
8365	0	32840	
8366	0	32804	
8367	0	32872	
8368	0	32816	
8369	0	32860	
8370	0	32864	
8371	0	32886	
8372	0	32920	
8373	0	32896	
8374	0	32814	
8375	0	32828	
8376	0	32772	
8377	0	32712	
8378	0	32654	
8379	0	32669	
8380	0	32572	
8381	0	32664	
8382	0	32730	
8383	0	32780	
8384	0	32816	
8385	0	32793	
8386	0	32816	
8387	0	32806	
8388	0	32764	
8389	0	32808	
8390	0	32832	
8391	0	32868	
8392	0	32916	
8393	0	32940	
8394	0	32856	
8395	0	32752	
8396	0	32756	
8397	0	32750	
8398	0	32692	
8399	0	32700	
8400	0	32620	
8401	0	32652	
8402	0	32684	
8403	0	32712	
8404	0	32804	
8405	0	32809	
8406	0	32796	
8407	0	32764	
8408	0	32845	
8409	0	32896	
8410	0	32848	
8411	0	32892	
8412	0	32904	
8413	0	32901	
8414	0	32816	
8415	0	32700	
8416	0	32716	
8417	0	32740	
8418	0	32692	
8419	0	32672	
8420	0	32648	
8421	0	32622	
8422	0	32664	
8423	0	32752	
8424	0	32784	
8425	0	32744	
8426	0	32768	
8427	0	32776	
8428	0	32876	
8429	0	32904	
8430	0	32892	
8431	0	32900	
8432	0	32956	
8433	0	32904	
8434	0	32792	
8435	0	32776	
8436	0	32756	
8437	0	32724	
8438	0	32688	
8439	0	32640	
8440	0	32621	
8441	0	32652	
8442	0	32756	
8443	0	32772	
8444	0	32744	
8445	0	32824	
8446	0	32824	
8447	0	32820	
8448	0	32788	
8449	0	32808	
8450	0	32876	
8451	0	32832	
8452	0	32856	
8453	0	32840	
8454	0	32776	
8455	0	32672	
8456	0	32752	
8457	0	32740	
8458	0	32725	
8459	0	32672	
8460	0	32600	
8461	0	32652	
8462	0	32800	
8463	0	32780	
8464	0	32884	
8465	0	32796	
8466	0	32781	
8467	0	32788	
8468	0	32872	
8469	0	32888	
8470	0	32910	
8471	0	32876	
8472	0	32984	
8473	0	32988	
8474	0	32808	
8475	0	32748	
8476	0	32745	
8477	0	32644	
8478	0	32656	
8479	0	32649	
8480	0	32560	
8481	0	32636	
8482	0	32720	
8483	0	32712	
8484	0	32800	
8485	0	32798	
8486	0	32804	
8487	0	32800	
8488	0	32812	
8489	0	32852	
8490	0	32888	
8491	0	32921	
8492	0	32932	
8493	0	32888	
8494	0	32804	
8495	0	32828	
8496	0	32716	
8497	0	32776	
8498	0	32680	
8499	0	32604	
8500	0	32652	
8501	0	32612	
8502	0	32760	
8503	0	32768	
8504	0	32752	
8505	0	32856	
8506	0	32813	
8507	0	32808	
8508	0	32788	
8509	0	32836	
8510	0	32868	
8511	0	32880	
8512	0	32912	
8513	0	32884	
8514	0	32824	
8515	0	32768	
8516	0	32768	
8517	0	32760	
8518	0	32680	
8519	0	32600	
8520	0	32596	
8521	0	32696	
8522	0	32680	
8523	0	32774	
8524	0	32744	
8525	0	32768	
8526	0	32808	
8527	0	32824	
8528	0	32840	
8529	0	32908	
8530	0	32888	
8531	0	32924	
8532	0	32884	
8533	0	32880	
8534	0	32864	
8535	0	32796	
8536	0	32736	
8537	0	32756	
8538	0	32668	
8539	0	32592	
8540	0	32624	
8541	0	32648	
8542	0	32736	
8543	0	32733	
8544	0	32784	
8545	0	32732	
8546	0	32792	
8547	0	32756	
8548	0	32860	
8549	0	32760	
8550	0	32896	
8551	0	32884	
8552	0	32916	
8553	0	32936	
8554	0	32896	
8555	0	32772	
8556	0	32832	
8557	0	32664	
8558	0	32644	
8559	0	32622	
8560	0	32640	
8561	0	32653	
8562	0	32716	
8563	0	32772	
8564	0	32820	
8565	0	32790	
8566	0	32836	
8567	0	32845	
8568	0	32844	
8569	0	32876	
8570	0	32824	
8571	0	32940	
8572	0	32864	
8573	0	32893	
8574	0	32773	
8575	0	32804	
8576	0	32776	
8577	0	32760	
8578	0	32672	
8579	0	32636	
8580	0	32596	
8581	0	32656	
8582	0	32744	
8583	0	32758	
8584	0	32796	
8585	0	32808	
8586	0	32876	
8587	0	32829	
8588	0	32797	
8589	0	32838	
8590	0	32884	
8591	0	32860	
8592	0	32876	
8593	0	32828	
8594	0	32804	
8595	0	32780	
8596	0	32748	
8597	0	32752	
8598	0	32720	
8599	0	32660	
8600	0	32640	
8601	0	32584	
8602	0	32712	
8603	0	32756	
8604	0	32800	
8605	0	32804	
8606	0	32772	
8607	0	32828	
8608	0	32800	
8609	0	32812	
8610	0	32820	
8611	0	32908	
8612	0	32916	
8613	0	32854	
