# OpenSignals Text File Format. Version 1
# {"00:07:80:4D:2E:9E": {"position": 0, "device": "biosignalsplux", "device name": "00:07:80:4D:2E:9E", "device connection": "BTH00:07:80:4D:2E:9E", "sampling rate": 1000, "resolution": [16], "firmware version": 774, "comments": "", "keywords": "", "mode": 0, "sync interval": 2, "date": "2020-7-9", "time": "18:54:36.555", "channels": [1], "sensor": ["EMG"], "label": ["CH1"], "column": ["nSeq", "DI", "CH1"], "special": [{}], "digital IO": [0, 1]}}
# EndOfHeader
0	0	32740	
1	0	32676	
2	0	32652	
3	0	32813	
4	0	32904	
5	0	32852	
6	0	32736	
7	0	32720	
8	0	32757	
9	0	32756	
10	0	32764	
11	0	32697	
12	0	32768	
13	0	32740	
14	0	32790	
15	0	32817	
16	0	32768	
17	0	32852	
18	0	32874	
19	0	32832	
20	0	32816	
21	0	32861	
22	0	32756	
23	0	32796	
24	0	32748	
25	0	32764	
26	0	32704	
27	0	32688	
28	0	32716	
29	0	32801	
30	0	32832	
31	0	32796	
32	0	32736	
33	0	32790	
34	0	32776	
35	0	32862	
36	0	32756	
37	0	32794	
38	0	32784	
39	0	32736	
40	0	32836	
41	0	32824	
42	0	32756	
43	0	32852	
44	0	32828	
45	0	32788	
46	0	32852	
47	0	32804	
48	0	32774	
49	0	32752	
50	0	32660	
51	0	32708	
52	0	32652	
53	0	32576	
54	0	32664	
55	0	32856	
56	0	32920	
57	0	32920	
58	0	32800	
59	0	32720	
60	0	32688	
61	0	32656	
62	0	32708	
63	0	32732	
64	0	33064	
65	0	33074	
66	0	32936	
67	0	32708	
68	0	32744	
69	0	32704	
70	0	32732	
71	0	32750	
72	0	32824	
73	0	32784	
74	0	32828	
75	0	32846	
76	0	32876	
77	0	32656	
78	0	32492	
79	0	32616	
80	0	32648	
81	0	32785	
82	0	32897	
83	0	32836	
84	0	32904	
85	0	32844	
86	0	32764	
87	0	32813	
88	0	32812	
89	0	32766	
90	0	32700	
91	0	32764	
92	0	32780	
93	0	32773	
94	0	32912	
95	0	32896	
96	0	32804	
97	0	32798	
98	0	32792	
99	0	32780	
100	0	32772	
101	0	32788	
102	0	32769	
103	0	32776	
104	0	32824	
105	0	32760	
106	0	32604	
107	0	32684	
108	0	32784	
109	0	32724	
110	0	32600	
111	0	32532	
112	0	32480	
113	0	32544	
114	0	32496	
115	0	32596	
116	0	32596	
117	0	32608	
118	0	32620	
119	0	32625	
120	0	32712	
121	0	32704	
122	0	32752	
123	0	32808	
124	0	32812	
125	0	32772	
126	0	32793	
127	0	32816	
128	0	32820	
129	0	32808	
130	0	32744	
131	0	32740	
132	0	32772	
133	0	32820	
134	0	32940	
135	0	32916	
136	0	32932	
137	0	32858	
138	0	32844	
139	0	32864	
140	0	32904	
141	0	32856	
142	0	32844	
143	0	32916	
144	0	32864	
145	0	32877	
146	0	32740	
147	0	32748	
148	0	32860	
149	0	32780	
150	0	32716	
151	0	32804	
152	0	32740	
153	0	32800	
154	0	32872	
155	0	32856	
156	0	32890	
157	0	32856	
158	0	32813	
159	0	32880	
160	0	32860	
161	0	32832	
162	0	32796	
163	0	32824	
164	0	32848	
165	0	32732	
166	0	32484	
167	0	32484	
168	0	32689	
169	0	32908	
170	0	32724	
171	0	32688	
172	0	32964	
173	0	33088	
174	0	32932	
175	0	32860	
176	0	32884	
177	0	32912	
178	0	32876	
179	0	32693	
180	0	32644	
181	0	32600	
182	0	32724	
183	0	32856	
184	0	32836	
185	0	32774	
186	0	32744	
187	0	32709	
188	0	32716	
189	0	32829	
190	0	32660	
191	0	32517	
192	0	32644	
193	0	32888	
194	0	32904	
195	0	32872	
196	0	32888	
197	0	32856	
198	0	32784	
199	0	32764	
200	0	32780	
201	0	32764	
202	0	32696	
203	0	32796	
204	0	32877	
205	0	32824	
206	0	32816	
207	0	32744	
208	0	32716	
209	0	32808	
210	0	32733	
211	0	32648	
212	0	32724	
213	0	33052	
214	0	32892	
215	0	32876	
216	0	32852	
217	0	32888	
218	0	32712	
219	0	32392	
220	0	32524	
221	0	32916	
222	0	32900	
223	0	32880	
224	0	32948	
225	0	32956	
226	0	32852	
227	0	32704	
228	0	32724	
229	0	32692	
230	0	32772	
231	0	32782	
232	0	32774	
233	0	32661	
234	0	32780	
235	0	32788	
236	0	32916	
237	0	32884	
238	0	32716	
239	0	32660	
240	0	32668	
241	0	32748	
242	0	32892	
243	0	33073	
244	0	33056	
245	0	32964	
246	0	32836	
247	0	32764	
248	0	32620	
249	0	32640	
250	0	32576	
251	0	32678	
252	0	32720	
253	0	32752	
254	0	32764	
255	0	32736	
256	0	32772	
257	0	32788	
258	0	32801	
259	0	32712	
260	0	32832	
261	0	32785	
262	0	32732	
263	0	32852	
264	0	32956	
265	0	32825	
266	0	32748	
267	0	32664	
268	0	32657	
269	0	32736	
270	0	32708	
271	0	32728	
272	0	32728	
273	0	32741	
274	0	32936	
275	0	32900	
276	0	32860	
277	0	32788	
278	0	32876	
279	0	32828	
280	0	32792	
281	0	32812	
282	0	32788	
283	0	32744	
284	0	32877	
285	0	32784	
286	0	32744	
287	0	32799	
288	0	32981	
289	0	32776	
290	0	32493	
291	0	32288	
292	0	32580	
293	0	32780	
294	0	32836	
295	0	32792	
296	0	32936	
297	0	32848	
298	0	32836	
299	0	32826	
300	0	32736	
301	0	32805	
302	0	32804	
303	0	32736	
304	0	32784	
305	0	32776	
306	0	32668	
307	0	32708	
308	0	32680	
309	0	32732	
310	0	32756	
311	0	32948	
312	0	32908	
313	0	32760	
314	0	32761	
315	0	32876	
316	0	32764	
317	0	32696	
318	0	32700	
319	0	32825	
320	0	32944	
321	0	32824	
322	0	32696	
323	0	32756	
324	0	32800	
325	0	32816	
326	0	32860	
327	0	32876	
328	0	32804	
329	0	32688	
330	0	32677	
331	0	32733	
332	0	32712	
333	0	32848	
334	0	32821	
335	0	32820	
336	0	32844	
337	0	32756	
338	0	32788	
339	0	32836	
340	0	32840	
341	0	33004	
342	0	32924	
343	0	32712	
344	0	32692	
345	0	32576	
346	0	32576	
347	0	32748	
348	0	32788	
349	0	32708	
350	0	32734	
351	0	32764	
352	0	32768	
353	0	32788	
354	0	32765	
355	0	32900	
356	0	32808	
357	0	32884	
358	0	32820	
359	0	32816	
360	0	32864	
361	0	32924	
362	0	32833	
363	0	32760	
364	0	32772	
365	0	32680	
366	0	32496	
367	0	32668	
368	0	32672	
369	0	32820	
370	0	32760	
371	0	32768	
372	0	32812	
373	0	32836	
374	0	32880	
375	0	32864	
376	0	32815	
377	0	32840	
378	0	32780	
379	0	32772	
380	0	32770	
381	0	32744	
382	0	32732	
383	0	32740	
384	0	32792	
385	0	32816	
386	0	32788	
387	0	32768	
388	0	32742	
389	0	32732	
390	0	32652	
391	0	32612	
392	0	32712	
393	0	32726	
394	0	32744	
395	0	32768	
396	0	32888	
397	0	32892	
398	0	32807	
399	0	32725	
400	0	32800	
401	0	32900	
402	0	33024	
403	0	33008	
404	0	32966	
405	0	32800	
406	0	32772	
407	0	32740	
408	0	32705	
409	0	32644	
410	0	32756	
411	0	32768	
412	0	32532	
413	0	32584	
414	0	32700	
415	0	32772	
416	0	32856	
417	0	32894	
418	0	32832	
419	0	32828	
420	0	32741	
421	0	32836	
422	0	32876	
423	0	32756	
424	0	32748	
425	0	32816	
426	0	32767	
427	0	32756	
428	0	32685	
429	0	32740	
430	0	32700	
431	0	32716	
432	0	32773	
433	0	32776	
434	0	32808	
435	0	32840	
436	0	32780	
437	0	32764	
438	0	32785	
439	0	32820	
440	0	32965	
441	0	32872	
442	0	32792	
443	0	32896	
444	0	32888	
445	0	32888	
446	0	32708	
447	0	32600	
448	0	32668	
449	0	32556	
450	0	32541	
451	0	32640	
452	0	32709	
453	0	32848	
454	0	32864	
455	0	32916	
456	0	32878	
457	0	32804	
458	0	32804	
459	0	32844	
460	0	32824	
461	0	32776	
462	0	32856	
463	0	32772	
464	0	32790	
465	0	32836	
466	0	32700	
467	0	32732	
468	0	32676	
469	0	32728	
470	0	32832	
471	0	32764	
472	0	32596	
473	0	32772	
474	0	33008	
475	0	33024	
476	0	32912	
477	0	32777	
478	0	32772	
479	0	32880	
480	0	32713	
481	0	32680	
482	0	32748	
483	0	32628	
484	0	32492	
485	0	32512	
486	0	32576	
487	0	32712	
488	0	32648	
489	0	32652	
490	0	32572	
491	0	32600	
492	0	32620	
493	0	32732	
494	0	32784	
495	0	32876	
496	0	33054	
497	0	33020	
498	0	32920	
499	0	32796	
500	0	32508	
501	0	32436	
502	0	32622	
503	0	32732	
504	0	32740	
505	0	32892	
506	0	33005	
507	0	32902	
508	0	32820	
509	0	32836	
510	0	32780	
511	0	32868	
512	0	32816	
513	0	32840	
514	0	32832	
515	0	32856	
516	0	32889	
517	0	32872	
518	0	32884	
519	0	32817	
520	0	32820	
521	0	32908	
522	0	32880	
523	0	32796	
524	0	32852	
525	0	32836	
526	0	32820	
527	0	32776	
528	0	32770	
529	0	32724	
530	0	32744	
531	0	32661	
532	0	32744	
533	0	32768	
534	0	32764	
535	0	32788	
536	0	32808	
537	0	32852	
538	0	32860	
539	0	32881	
540	0	32852	
541	0	32800	
542	0	32872	
543	0	32704	
544	0	32712	
545	0	32756	
546	0	32792	
547	0	32776	
548	0	32772	
549	0	32768	
550	0	32750	
551	0	32678	
552	0	32704	
553	0	32872	
554	0	32869	
555	0	32808	
556	0	32849	
557	0	32796	
558	0	32752	
559	0	32732	
560	0	32788	
561	0	32840	
562	0	32858	
563	0	32824	
564	0	32796	
565	0	32828	
566	0	32820	
567	0	32688	
568	0	32885	
569	0	32925	
570	0	32848	
571	0	32753	
572	0	32612	
573	0	32632	
574	0	32660	
575	0	32764	
576	0	32776	
577	0	32868	
578	0	32984	
579	0	32950	
580	0	32796	
581	0	32744	
582	0	32668	
583	0	32684	
584	0	32788	
585	0	32864	
586	0	32852	
587	0	32716	
588	0	32752	
589	0	32676	
590	0	32796	
591	0	32802	
592	0	32888	
593	0	32916	
594	0	32748	
595	0	32868	
596	0	32784	
597	0	32796	
598	0	32677	
599	0	32692	
600	0	32780	
601	0	32800	
602	0	32776	
603	0	32620	
604	0	32804	
605	0	32854	
606	0	32804	
607	0	32756	
608	0	32732	
609	0	32756	
610	0	32688	
611	0	32680	
612	0	32780	
613	0	32860	
614	0	32836	
615	0	32826	
616	0	32840	
617	0	32896	
618	0	32850	
619	0	32802	
620	0	32836	
621	0	32808	
622	0	32794	
623	0	32736	
624	0	32772	
625	0	32784	
626	0	32828	
627	0	32716	
628	0	32744	
629	0	32692	
630	0	32720	
631	0	32736	
632	0	32745	
633	0	32776	
634	0	32804	
635	0	32800	
636	0	32824	
637	0	32911	
638	0	32920	
639	0	32728	
640	0	32800	
641	0	32876	
642	0	32760	
643	0	32800	
644	0	32748	
645	0	32720	
646	0	32729	
647	0	32709	
648	0	32720	
649	0	32800	
650	0	32840	
651	0	32720	
652	0	32680	
653	0	32760	
654	0	32776	
655	0	32844	
656	0	32844	
657	0	32796	
658	0	32777	
659	0	32824	
660	0	32756	
661	0	32780	
662	0	32768	
663	0	32828	
664	0	32808	
665	0	32796	
666	0	32869	
667	0	32788	
668	0	32776	
669	0	32772	
670	0	32688	
671	0	32680	
672	0	32728	
673	0	32728	
674	0	32728	
675	0	32812	
676	0	32816	
677	0	32856	
678	0	32844	
679	0	32676	
680	0	32812	
681	0	32812	
682	0	32760	
683	0	32720	
684	0	32909	
685	0	32936	
686	0	32780	
687	0	32752	
688	0	32752	
689	0	32725	
690	0	32752	
691	0	32700	
692	0	32704	
693	0	32744	
694	0	32844	
695	0	32764	
696	0	32836	
697	0	32846	
698	0	32870	
699	0	32796	
700	0	32800	
701	0	32852	
702	0	32844	
703	0	32716	
704	0	32816	
705	0	32801	
706	0	32820	
707	0	32804	
708	0	32706	
709	0	32698	
710	0	32696	
711	0	32596	
712	0	32672	
713	0	32748	
714	0	32724	
715	0	32884	
716	0	32896	
717	0	32920	
718	0	32816	
719	0	32782	
720	0	32836	
721	0	32832	
722	0	32856	
723	0	32756	
724	0	32848	
725	0	32788	
726	0	32828	
727	0	32700	
728	0	32668	
729	0	32653	
730	0	32663	
731	0	32676	
732	0	32864	
733	0	32832	
734	0	32870	
735	0	32780	
736	0	32840	
737	0	32925	
738	0	32800	
739	0	32798	
740	0	32796	
741	0	32856	
742	0	32770	
743	0	32724	
744	0	32824	
745	0	32772	
746	0	32760	
747	0	32892	
748	0	32972	
749	0	32769	
750	0	32608	
751	0	32576	
752	0	32737	
753	0	32820	
754	0	32848	
755	0	32956	
756	0	32896	
757	0	32820	
758	0	32660	
759	0	32560	
760	0	32528	
761	0	32641	
762	0	32708	
763	0	32804	
764	0	32860	
765	0	33028	
766	0	32896	
767	0	32784	
768	0	32772	
769	0	32704	
770	0	32720	
771	0	32700	
772	0	32632	
773	0	32704	
774	0	32832	
775	0	33228	
776	0	32996	
777	0	32816	
778	0	32688	
779	0	32704	
780	0	32812	
781	0	32749	
782	0	32756	
783	0	32840	
784	0	32820	
785	0	32836	
786	0	32872	
787	0	32772	
788	0	32700	
789	0	32768	
790	0	32716	
791	0	32716	
792	0	32724	
793	0	32716	
794	0	32752	
795	0	32748	
796	0	32774	
797	0	32853	
798	0	32872	
799	0	32828	
800	0	32862	
801	0	32804	
802	0	32833	
803	0	32856	
804	0	32808	
805	0	32860	
806	0	32816	
807	0	32668	
808	0	32756	
809	0	32732	
810	0	32592	
811	0	32685	
812	0	32752	
813	0	32820	
814	0	32788	
815	0	32852	
816	0	32748	
817	0	32752	
818	0	32808	
819	0	32824	
820	0	32760	
821	0	32900	
822	0	32888	
823	0	32892	
824	0	32964	
825	0	32888	
826	0	32784	
827	0	32676	
828	0	32684	
829	0	32708	
830	0	32780	
831	0	32757	
832	0	32717	
833	0	32776	
834	0	32773	
835	0	32788	
836	0	32710	
837	0	32708	
838	0	32672	
839	0	32596	
840	0	32696	
841	0	32816	
842	0	32792	
843	0	32901	
844	0	33132	
845	0	33038	
846	0	32756	
847	0	32564	
848	0	32676	
849	0	32704	
850	0	32718	
851	0	32660	
852	0	32720	
853	0	32848	
854	0	32808	
855	0	32868	
856	0	32860	
857	0	32876	
858	0	32820	
859	0	32792	
860	0	32780	
861	0	32844	
862	0	32824	
863	0	32788	
864	0	32772	
865	0	32804	
866	0	32840	
867	0	32718	
868	0	32670	
869	0	32748	
870	0	32748	
871	0	32741	
872	0	32668	
873	0	32740	
874	0	32756	
875	0	32860	
876	0	32804	
877	0	32842	
878	0	32844	
879	0	32860	
880	0	32768	
881	0	32808	
882	0	32822	
883	0	32828	
884	0	32760	
885	0	32824	
886	0	32836	
887	0	32692	
888	0	32772	
889	0	32826	
890	0	32660	
891	0	32600	
892	0	32692	
893	0	32736	
894	0	32700	
895	0	32852	
896	0	32844	
897	0	32844	
898	0	32792	
899	0	32752	
900	0	32848	
901	0	32872	
902	0	32917	
903	0	32920	
904	0	32832	
905	0	32844	
906	0	32814	
907	0	32712	
908	0	32700	
909	0	32705	
910	0	32712	
911	0	32732	
912	0	32728	
913	0	32624	
914	0	32681	
915	0	32888	
916	0	32876	
917	0	32800	
918	0	32749	
919	0	32848	
920	0	32884	
921	0	33040	
922	0	32949	
923	0	32904	
924	0	32808	
925	0	32724	
926	0	32704	
927	0	32712	
928	0	32716	
929	0	32640	
930	0	32772	
931	0	32784	
932	0	32748	
933	0	32584	
934	0	32637	
935	0	32908	
936	0	32836	
937	0	32792	
938	0	32869	
939	0	32720	
940	0	32700	
941	0	32736	
942	0	32712	
943	0	32748	
944	0	32848	
945	0	32848	
946	0	32852	
947	0	32812	
948	0	32749	
949	0	32704	
950	0	32808	
951	0	32788	
952	0	32804	
953	0	32736	
954	0	32724	
955	0	32800	
956	0	32732	
957	0	32688	
958	0	32584	
959	0	32804	
960	0	32784	
961	0	32900	
962	0	32860	
963	0	32824	
964	0	32748	
965	0	32832	
966	0	32796	
967	0	32750	
968	0	32748	
969	0	32764	
970	0	32756	
971	0	32668	
972	0	32636	
973	0	32668	
974	0	32692	
975	0	32768	
976	0	32908	
977	0	32976	
978	0	32918	
979	0	32784	
980	0	32808	
981	0	32924	
982	0	32784	
983	0	32704	
984	0	32824	
985	0	32854	
986	0	32716	
987	0	32757	
988	0	32744	
989	0	32693	
990	0	32760	
991	0	32704	
992	0	32704	
993	0	32769	
994	0	32796	
995	0	32736	
996	0	32740	
997	0	32864	
998	0	32880	
999	0	32893	
1000	0	32830	
1001	0	32828	
1002	0	32792	
1003	0	32780	
1004	0	32784	
1005	0	32714	
1006	0	32628	
1007	0	32688	
1008	0	32905	
1009	0	33041	
1010	0	32918	
1011	0	32684	
1012	0	32640	
1013	0	32688	
1014	0	32720	
1015	0	32776	
1016	0	32772	
1017	0	32724	
1018	0	32744	
1019	0	32836	
1020	0	32788	
1021	0	32832	
1022	0	32824	
1023	0	32805	
1024	0	32808	
1025	0	32820	
1026	0	32784	
1027	0	32732	
1028	0	32724	
1029	0	32740	
1030	0	32744	
1031	0	32732	
1032	0	32738	
1033	0	32716	
1034	0	32772	
1035	0	32880	
1036	0	32828	
1037	0	32880	
1038	0	32832	
1039	0	32924	
1040	0	32852	
1041	0	32716	
1042	0	32564	
1043	0	32660	
1044	0	32712	
1045	0	32768	
1046	0	32784	
1047	0	32620	
1048	0	32600	
1049	0	32596	
1050	0	32632	
1051	0	32692	
1052	0	32932	
1053	0	32856	
1054	0	32868	
1055	0	32860	
1056	0	32872	
1057	0	32844	
1058	0	32888	
1059	0	32844	
1060	0	32772	
1061	0	32884	
1062	0	32904	
1063	0	32796	
1064	0	32712	
1065	0	32736	
1066	0	32792	
1067	0	32764	
1068	0	32756	
1069	0	32698	
1070	0	32800	
1071	0	32748	
1072	0	32716	
1073	0	32748	
1074	0	32761	
1075	0	32736	
1076	0	32760	
1077	0	32724	
1078	0	32776	
1079	0	32868	
1080	0	32916	
1081	0	32904	
1082	0	32904	
1083	0	32756	
1084	0	32700	
1085	0	32692	
1086	0	32860	
1087	0	32886	
1088	0	32702	
1089	0	32716	
1090	0	32716	
1091	0	32584	
1092	0	32608	
1093	0	32712	
1094	0	32720	
1095	0	32884	
1096	0	32984	
1097	0	32940	
1098	0	32808	
1099	0	32776	
1100	0	32780	
1101	0	32904	
1102	0	32852	
1103	0	32660	
1104	0	32732	
1105	0	32804	
1106	0	32860	
1107	0	32800	
1108	0	32720	
1109	0	32757	
1110	0	32720	
1111	0	32546	
1112	0	32652	
1113	0	32724	
1114	0	32740	
1115	0	32908	
1116	0	32896	
1117	0	32884	
1118	0	32920	
1119	0	32884	
1120	0	32748	
1121	0	32672	
1122	0	32640	
1123	0	32744	
1124	0	32668	
1125	0	32828	
1126	0	32836	
1127	0	32740	
1128	0	32724	
1129	0	32812	
1130	0	32808	
1131	0	32764	
1132	0	32741	
1133	0	32776	
1134	0	32736	
1135	0	32820	
1136	0	32856	
1137	0	32932	
1138	0	32804	
1139	0	32861	
1140	0	32869	
1141	0	32856	
1142	0	32796	
1143	0	32908	
1144	0	32904	
1145	0	32766	
1146	0	32616	
1147	0	32632	
1148	0	32692	
1149	0	32505	
1150	0	32704	
1151	0	32824	
1152	0	32704	
1153	0	32765	
1154	0	32820	
1155	0	32860	
1156	0	32924	
1157	0	32780	
1158	0	32704	
1159	0	32740	
1160	0	32760	
1161	0	33024	
1162	0	33012	
1163	0	32872	
1164	0	32804	
1165	0	32800	
1166	0	32800	
1167	0	32774	
1168	0	32820	
1169	0	32776	
1170	0	32772	
1171	0	32704	
1172	0	32476	
1173	0	32625	
1174	0	32918	
1175	0	32836	
1176	0	32796	
1177	0	32768	
1178	0	32820	
1179	0	32804	
1180	0	32676	
1181	0	32636	
1182	0	32768	
1183	0	32892	
1184	0	32984	
1185	0	32896	
1186	0	32824	
1187	0	32748	
1188	0	32764	
1189	0	32772	
1190	0	32736	
1191	0	32729	
1192	0	32696	
1193	0	32716	
1194	0	32764	
1195	0	32762	
1196	0	32796	
1197	0	32925	
1198	0	32900	
1199	0	32764	
1200	0	32832	
1201	0	32876	
1202	0	32804	
1203	0	32820	
1204	0	32788	
1205	0	32820	
1206	0	32800	
1207	0	32748	
1208	0	32636	
1209	0	32704	
1210	0	32732	
1211	0	32776	
1212	0	32905	
1213	0	32728	
1214	0	32736	
1215	0	32744	
1216	0	32788	
1217	0	32832	
1218	0	32800	
1219	0	32796	
1220	0	32796	
1221	0	32812	
1222	0	32796	
1223	0	32808	
1224	0	32761	
1225	0	32748	
1226	0	32732	
1227	0	32712	
1228	0	32628	
1229	0	32576	
1230	0	32740	
1231	0	32890	
1232	0	32706	
1233	0	32700	
1234	0	32828	
1235	0	32917	
1236	0	32948	
1237	0	32908	
1238	0	32832	
1239	0	32696	
1240	0	32869	
1241	0	32785	
1242	0	32748	
1243	0	32800	
1244	0	32768	
1245	0	32686	
1246	0	32724	
1247	0	32776	
1248	0	32724	
1249	0	32716	
1250	0	32804	
1251	0	32868	
1252	0	32800	
1253	0	32736	
1254	0	32792	
1255	0	32812	
1256	0	32848	
1257	0	32836	
1258	0	32805	
1259	0	32728	
1260	0	32876	
1261	0	32892	
1262	0	32901	
1263	0	32748	
1264	0	32508	
1265	0	32348	
1266	0	32716	
1267	0	32857	
1268	0	32657	
1269	0	32772	
1270	0	32948	
1271	0	32828	
1272	0	32800	
1273	0	32724	
1274	0	32794	
1275	0	32796	
1276	0	32796	
1277	0	32816	
1278	0	32856	
1279	0	32829	
1280	0	32784	
1281	0	32772	
1282	0	32808	
1283	0	32784	
1284	0	32766	
1285	0	32812	
1286	0	32760	
1287	0	32816	
1288	0	32768	
1289	0	32762	
1290	0	32728	
1291	0	32732	
1292	0	32696	
1293	0	32768	
1294	0	32724	
1295	0	32760	
1296	0	32808	
1297	0	32808	
1298	0	32816	
1299	0	32774	
1300	0	32800	
1301	0	32812	
1302	0	32904	
1303	0	32876	
1304	0	32772	
1305	0	32809	
1306	0	32748	
1307	0	32756	
1308	0	32734	
1309	0	32688	
1310	0	32704	
1311	0	32676	
1312	0	32688	
1313	0	32728	
1314	0	32796	
1315	0	32856	
1316	0	32800	
1317	0	32685	
1318	0	32736	
1319	0	33000	
1320	0	32944	
1321	0	32832	
1322	0	32812	
1323	0	32932	
1324	0	32924	
1325	0	32776	
1326	0	32844	
1327	0	32760	
1328	0	32645	
1329	0	32600	
1330	0	32696	
1331	0	32664	
1332	0	32701	
1333	0	32704	
1334	0	32728	
1335	0	32852	
1336	0	33040	
1337	0	32928	
1338	0	32876	
1339	0	32781	
1340	0	32772	
1341	0	32672	
1342	0	32609	
1343	0	32612	
1344	0	32764	
1345	0	32769	
1346	0	32704	
1347	0	32826	
1348	0	32748	
1349	0	32869	
1350	0	32856	
1351	0	32696	
1352	0	32612	
1353	0	32696	
1354	0	32756	
1355	0	32866	
1356	0	32844	
1357	0	32932	
1358	0	32884	
1359	0	32748	
1360	0	32796	
1361	0	32817	
1362	0	32680	
1363	0	32668	
1364	0	32684	
1365	0	32817	
1366	0	32932	
1367	0	32878	
1368	0	32773	
1369	0	32724	
1370	0	32804	
1371	0	32724	
1372	0	32716	
1373	0	32685	
1374	0	32744	
1375	0	32688	
1376	0	32816	
1377	0	32854	
1378	0	32824	
1379	0	32780	
1380	0	32824	
1381	0	32832	
1382	0	32844	
1383	0	32852	
1384	0	32748	
1385	0	32688	
1386	0	32836	
1387	0	32756	
1388	0	32644	
1389	0	32608	
1390	0	32664	
1391	0	32737	
1392	0	32716	
1393	0	32798	
1394	0	32768	
1395	0	32870	
1396	0	32916	
1397	0	33088	
1398	0	32904	
1399	0	32744	
1400	0	32784	
1401	0	32740	
1402	0	32764	
1403	0	32797	
1404	0	32764	
1405	0	32796	
1406	0	32836	
1407	0	32764	
1408	0	32728	
1409	0	32797	
1410	0	32798	
1411	0	32796	
1412	0	32657	
1413	0	32616	
1414	0	32660	
1415	0	32696	
1416	0	32757	
1417	0	32776	
1418	0	32952	
1419	0	33016	
1420	0	32900	
1421	0	32774	
1422	0	32696	
1423	0	32692	
1424	0	32688	
1425	0	32780	
1426	0	32817	
1427	0	32860	
1428	0	32736	
1429	0	32708	
1430	0	32804	
1431	0	32785	
1432	0	32780	
1433	0	32792	
1434	0	32748	
1435	0	32668	
1436	0	32766	
1437	0	32804	
1438	0	32824	
1439	0	32828	
1440	0	32800	
1441	0	32720	
1442	0	32836	
1443	0	32832	
1444	0	32876	
1445	0	32836	
1446	0	32808	
1447	0	32668	
1448	0	32536	
1449	0	32628	
1450	0	32756	
1451	0	32844	
1452	0	32744	
1453	0	32720	
1454	0	32784	
1455	0	32672	
1456	0	32812	
1457	0	32836	
1458	0	32940	
1459	0	32912	
1460	0	32796	
1461	0	32816	
1462	0	32752	
1463	0	32750	
1464	0	32776	
1465	0	32896	
1466	0	32852	
1467	0	32784	
1468	0	32780	
1469	0	32708	
1470	0	32672	
1471	0	32692	
1472	0	32696	
1473	0	32724	
1474	0	32805	
1475	0	32724	
1476	0	32800	
1477	0	32712	
1478	0	32701	
1479	0	32798	
1480	0	32840	
1481	0	32825	
1482	0	32952	
1483	0	32844	
1484	0	32816	
1485	0	32820	
1486	0	32852	
1487	0	32789	
1488	0	32684	
1489	0	32732	
1490	0	32768	
1491	0	32768	
1492	0	32662	
1493	0	32736	
1494	0	32678	
1495	0	32736	
1496	0	32868	
1497	0	32858	
1498	0	32904	
1499	0	32960	
1500	0	32888	
1501	0	32788	
1502	0	32656	
1503	0	32653	
1504	0	32832	
1505	0	32766	
1506	0	32716	
1507	0	32696	
1508	0	32676	
1509	0	32784	
1510	0	32844	
1511	0	32816	
1512	0	32744	
1513	0	32728	
1514	0	32784	
1515	0	32832	
1516	0	32888	
1517	0	32796	
1518	0	32832	
1519	0	32796	
1520	0	32788	
1521	0	32734	
1522	0	32888	
1523	0	32832	
1524	0	32812	
1525	0	32880	
1526	0	32836	
1527	0	32692	
1528	0	32472	
1529	0	32604	
1530	0	32724	
1531	0	32796	
1532	0	32724	
1533	0	32792	
1534	0	32824	
1535	0	32856	
1536	0	32868	
1537	0	32776	
1538	0	32884	
1539	0	32852	
1540	0	32752	
1541	0	32816	
1542	0	32796	
1543	0	32740	
1544	0	32780	
1545	0	32952	
1546	0	32868	
1547	0	32860	
1548	0	32740	
1549	0	32700	
1550	0	32684	
1551	0	32664	
1552	0	32808	
1553	0	32837	
1554	0	32696	
1555	0	32772	
1556	0	32828	
1557	0	32802	
1558	0	32680	
1559	0	32800	
1560	0	32932	
1561	0	32900	
1562	0	32857	
1563	0	32776	
1564	0	32744	
1565	0	32728	
1566	0	32766	
1567	0	32780	
1568	0	32744	
1569	0	32792	
1570	0	32656	
1571	0	32828	
1572	0	32828	
1573	0	32732	
1574	0	32780	
1575	0	32856	
1576	0	32820	
1577	0	32652	
1578	0	32428	
1579	0	32660	
1580	0	32816	
1581	0	32889	
1582	0	32840	
1583	0	32916	
1584	0	32830	
1585	0	32860	
1586	0	32804	
1587	0	32808	
1588	0	32744	
1589	0	32708	
1590	0	32716	
1591	0	32696	
1592	0	32700	
1593	0	32668	
1594	0	32740	
1595	0	32748	
1596	0	32900	
1597	0	32812	
1598	0	32876	
1599	0	32844	
1600	0	32844	
1601	0	32828	
1602	0	32816	
1603	0	32758	
1604	0	32824	
1605	0	32680	
1606	0	32717	
1607	0	32800	
1608	0	32732	
1609	0	32740	
1610	0	32685	
1611	0	32748	
1612	0	32665	
1613	0	32784	
1614	0	32764	
1615	0	32792	
1616	0	32877	
1617	0	32848	
1618	0	32880	
1619	0	32812	
1620	0	32860	
1621	0	32716	
1622	0	32694	
1623	0	32724	
1624	0	32668	
1625	0	32760	
1626	0	32973	
1627	0	32804	
1628	0	32776	
1629	0	32788	
1630	0	32744	
1631	0	32776	
1632	0	32670	
1633	0	32620	
1634	0	32720	
1635	0	32816	
1636	0	32865	
1637	0	32740	
1638	0	32824	
1639	0	32792	
1640	0	32740	
1641	0	32920	
1642	0	32960	
1643	0	32772	
1644	0	32728	
1645	0	32684	
1646	0	32725	
1647	0	32878	
1648	0	32744	
1649	0	32696	
1650	0	32680	
1651	0	32786	
1652	0	32840	
1653	0	32824	
1654	0	32668	
1655	0	32716	
1656	0	32848	
1657	0	32732	
1658	0	32676	
1659	0	32836	
1660	0	32864	
1661	0	32916	
1662	0	32940	
1663	0	32832	
1664	0	32804	
1665	0	32736	
1666	0	32700	
1667	0	32788	
1668	0	32816	
1669	0	32716	
1670	0	32704	
1671	0	32706	
1672	0	32692	
1673	0	32740	
1674	0	32748	
1675	0	32824	
1676	0	32892	
1677	0	32800	
1678	0	32888	
1679	0	32764	
1680	0	32784	
1681	0	32712	
1682	0	32740	
1683	0	32792	
1684	0	32852	
1685	0	32772	
1686	0	32836	
1687	0	32842	
1688	0	32856	
1689	0	32704	
1690	0	32661	
1691	0	32756	
1692	0	32592	
1693	0	32621	
1694	0	32692	
1695	0	32720	
1696	0	32796	
1697	0	32877	
1698	0	32920	
1699	0	32864	
1700	0	32832	
1701	0	32792	
1702	0	32824	
1703	0	32924	
1704	0	32774	
1705	0	32788	
1706	0	32828	
1707	0	32808	
1708	0	32836	
1709	0	32840	
1710	0	32808	
1711	0	32708	
1712	0	32637	
1713	0	32632	
1714	0	32584	
1715	0	32772	
1716	0	32870	
1717	0	32864	
1718	0	32861	
1719	0	32837	
1720	0	32746	
1721	0	32801	
1722	0	32848	
1723	0	32872	
1724	0	32801	
1725	0	32760	
1726	0	32692	
1727	0	32768	
1728	0	32752	
1729	0	32644	
1730	0	32516	
1731	0	32720	
1732	0	32778	
1733	0	32785	
1734	0	32845	
1735	0	32877	
1736	0	32848	
1737	0	32816	
1738	0	32812	
1739	0	32860	
1740	0	32798	
1741	0	32876	
1742	0	32830	
1743	0	32784	
1744	0	32832	
1745	0	32832	
1746	0	32736	
1747	0	32780	
1748	0	32732	
1749	0	32704	
1750	0	32712	
1751	0	32660	
1752	0	32644	
1753	0	32700	
1754	0	32736	
1755	0	32752	
1756	0	32812	
1757	0	32812	
1758	0	32800	
1759	0	32764	
1760	0	32812	
1761	0	32820	
1762	0	32906	
1763	0	32864	
1764	0	32744	
1765	0	32724	
1766	0	32796	
1767	0	32908	
1768	0	33004	
1769	0	32816	
1770	0	32768	
1771	0	32684	
1772	0	32680	
1773	0	32696	
1774	0	32728	
1775	0	32712	
1776	0	32776	
1777	0	32845	
1778	0	32881	
1779	0	32840	
1780	0	32856	
1781	0	32816	
1782	0	32768	
1783	0	32789	
1784	0	32760	
1785	0	32804	
1786	0	32812	
1787	0	32804	
1788	0	32744	
1789	0	32676	
1790	0	32724	
1791	0	32756	
1792	0	32676	
1793	0	32828	
1794	0	32836	
1795	0	32724	
1796	0	32788	
1797	0	32708	
1798	0	32632	
1799	0	32740	
1800	0	32812	
1801	0	32888	
1802	0	32879	
1803	0	32868	
1804	0	32908	
1805	0	32808	
1806	0	32896	
1807	0	32768	
1808	0	32756	
1809	0	32712	
1810	0	32712	
1811	0	32588	
1812	0	32664	
1813	0	32672	
1814	0	32684	
1815	0	32752	
1816	0	32792	
1817	0	32892	
1818	0	32928	
1819	0	32928	
1820	0	32905	
1821	0	32776	
1822	0	32822	
1823	0	32780	
1824	0	32612	
1825	0	32748	
1826	0	32800	
1827	0	32840	
1828	0	32692	
1829	0	32612	
1830	0	32650	
1831	0	32676	
1832	0	32832	
1833	0	32836	
1834	0	32692	
1835	0	32736	
1836	0	32852	
1837	0	32848	
1838	0	32878	
1839	0	32876	
1840	0	32876	
1841	0	32812	
1842	0	32848	
1843	0	32845	
1844	0	32812	
1845	0	32812	
1846	0	32864	
1847	0	32813	
1848	0	32752	
1849	0	32688	
1850	0	32692	
1851	0	32629	
1852	0	32726	
1853	0	32744	
1854	0	32740	
1855	0	32734	
1856	0	32844	
1857	0	32804	
1858	0	32860	
1859	0	32940	
1860	0	32877	
1861	0	32768	
1862	0	32684	
1863	0	32680	
1864	0	32720	
1865	0	32692	
1866	0	32572	
1867	0	32784	
1868	0	33036	
1869	0	32864	
1870	0	32720	
1871	0	32680	
1872	0	32756	
1873	0	32816	
1874	0	32748	
1875	0	32912	
1876	0	32828	
1877	0	32740	
1878	0	32836	
1879	0	32864	
1880	0	32896	
1881	0	32788	
1882	0	32744	
1883	0	32696	
1884	0	32756	
1885	0	32800	
1886	0	32872	
1887	0	32688	
1888	0	32661	
1889	0	32792	
1890	0	32772	
1891	0	32724	
1892	0	32672	
1893	0	32768	
1894	0	32793	
1895	0	32904	
1896	0	32952	
1897	0	32856	
1898	0	32784	
1899	0	32864	
1900	0	32636	
1901	0	32656	
1902	0	32764	
1903	0	32724	
1904	0	32872	
1905	0	32868	
1906	0	32772	
1907	0	32768	
1908	0	32752	
1909	0	32684	
1910	0	32760	
1911	0	32772	
1912	0	32822	
1913	0	32764	
1914	0	32733	
1915	0	32778	
1916	0	32768	
1917	0	32776	
1918	0	32740	
1919	0	32756	
1920	0	32796	
1921	0	32924	
1922	0	32900	
1923	0	32822	
1924	0	32852	
1925	0	32660	
1926	0	32680	
1927	0	32788	
1928	0	32712	
1929	0	32646	
1930	0	32744	
1931	0	32728	
1932	0	32772	
1933	0	32737	
1934	0	32670	
1935	0	32748	
1936	0	32852	
1937	0	32804	
1938	0	32872	
1939	0	32888	
1940	0	32856	
1941	0	32784	
1942	0	32720	
1943	0	32688	
1944	0	32808	
1945	0	32829	
1946	0	32841	
1947	0	32776	
1948	0	32804	
1949	0	32796	
1950	0	32740	
1951	0	32604	
1952	0	32672	
1953	0	32661	
1954	0	32756	
1955	0	32892	
1956	0	33032	
1957	0	32952	
1958	0	32840	
1959	0	32824	
1960	0	32776	
1961	0	32800	
1962	0	32749	
1963	0	32768	
1964	0	32837	
1965	0	32884	
1966	0	32836	
1967	0	32760	
1968	0	32791	
1969	0	32800	
1970	0	32704	
1971	0	32720	
1972	0	32748	
1973	0	32688	
1974	0	32676	
1975	0	32572	
1976	0	32688	
1977	0	32844	
1978	0	32797	
1979	0	32800	
1980	0	32844	
1981	0	32840	
1982	0	32820	
1983	0	32848	
1984	0	32960	
1985	0	33024	
1986	0	32944	
1987	0	32800	
1988	0	32565	
1989	0	32520	
1990	0	32704	
1991	0	32796	
1992	0	32724	
1993	0	32724	
1994	0	32748	
1995	0	32772	
1996	0	32760	
1997	0	32796	
1998	0	32876	
1999	0	33000	
2000	0	32828	
2001	0	32788	
2002	0	32804	
2003	0	32800	
2004	0	32764	
2005	0	32722	
2006	0	32864	
2007	0	32756	
2008	0	32732	
2009	0	32732	
2010	0	32752	
2011	0	32740	
2012	0	32712	
2013	0	32740	
2014	0	32756	
2015	0	32752	
2016	0	32704	
2017	0	32768	
2018	0	32864	
2019	0	32936	
2020	0	32840	
2021	0	32852	
2022	0	32912	
2023	0	32789	
2024	0	32588	
2025	0	32356	
2026	0	32708	
2027	0	32792	
2028	0	32789	
2029	0	32920	
2030	0	32840	
2031	0	32822	
2032	0	32728	
2033	0	32688	
2034	0	32736	
2035	0	32900	
2036	0	32857	
2037	0	32884	
2038	0	32916	
2039	0	32894	
2040	0	32769	
2041	0	32820	
2042	0	32808	
2043	0	32740	
2044	0	32770	
2045	0	32856	
2046	0	32772	
2047	0	32708	
2048	0	32777	
2049	0	32720	
2050	0	32734	
2051	0	32660	
2052	0	32760	
2053	0	32661	
2054	0	32744	
2055	0	32736	
2056	0	32744	
2057	0	32878	
2058	0	32948	
2059	0	32936	
2060	0	32760	
2061	0	32900	
2062	0	32792	
2063	0	32804	
2064	0	32713	
2065	0	32760	
2066	0	32796	
2067	0	32824	
2068	0	32786	
2069	0	32668	
2070	0	32744	
2071	0	32696	
2072	0	32684	
2073	0	32608	
2074	0	32713	
2075	0	32740	
2076	0	32768	
2077	0	32904	
2078	0	32868	
2079	0	32856	
2080	0	32876	
2081	0	32900	
2082	0	32812	
2083	0	32920	
2084	0	32832	
2085	0	32796	
2086	0	32624	
2087	0	32542	
2088	0	32568	
2089	0	32748	
2090	0	32752	
2091	0	32812	
2092	0	32756	
2093	0	32688	
2094	0	32704	
2095	0	32724	
2096	0	32732	
2097	0	32844	
2098	0	32856	
2099	0	32916	
2100	0	32804	
2101	0	32704	
2102	0	32752	
2103	0	32844	
2104	0	32796	
2105	0	32743	
2106	0	32888	
2107	0	32934	
2108	0	32780	
2109	0	32660	
2110	0	32656	
2111	0	32704	
2112	0	32732	
2113	0	32664	
2114	0	32720	
2115	0	32780	
2116	0	32816	
2117	0	32912	
2118	0	32924	
2119	0	32844	
2120	0	32808	
2121	0	32848	
2122	0	32756	
2123	0	32684	
2124	0	32656	
2125	0	32700	
2126	0	32876	
2127	0	32748	
2128	0	32617	
2129	0	32580	
2130	0	32744	
2131	0	32816	
2132	0	32948	
2133	0	33040	
2134	0	32836	
2135	0	32752	
2136	0	32800	
2137	0	32792	
2138	0	32736	
2139	0	32812	
2140	0	32830	
2141	0	32801	
2142	0	32756	
2143	0	32792	
2144	0	32789	
2145	0	32816	
2146	0	32780	
2147	0	32792	
2148	0	32816	
2149	0	32696	
2150	0	32692	
2151	0	32732	
2152	0	32904	
2153	0	32676	
2154	0	32636	
2155	0	32804	
2156	0	32744	
2157	0	32732	
2158	0	32844	
2159	0	33022	
2160	0	33036	
2161	0	32852	
2162	0	32788	
2163	0	32792	
2164	0	32756	
2165	0	32813	
2166	0	32732	
2167	0	32712	
2168	0	32764	
2169	0	32704	
2170	0	32721	
2171	0	32728	
2172	0	32800	
2173	0	32768	
2174	0	32800	
2175	0	32772	
2176	0	32756	
2177	0	32814	
2178	0	32756	
2179	0	32750	
2180	0	32828	
2181	0	32872	
2182	0	32804	
2183	0	32768	
2184	0	32764	
2185	0	32708	
2186	0	32692	
2187	0	32848	
2188	0	32848	
2189	0	32698	
2190	0	32680	
2191	0	32820	
2192	0	32820	
2193	0	32748	
2194	0	32756	
2195	0	32768	
2196	0	32808	
2197	0	32820	
2198	0	32828	
2199	0	32852	
2200	0	32828	
2201	0	32760	
2202	0	32800	
2203	0	32788	
2204	0	32848	
2205	0	32837	
2206	0	32836	
2207	0	32815	
2208	0	32680	
2209	0	32772	
2210	0	32728	
2211	0	32664	
2212	0	32732	
2213	0	32672	
2214	0	32625	
2215	0	32668	
2216	0	32696	
2217	0	32868	
2218	0	32896	
2219	0	32932	
2220	0	32828	
2221	0	32828	
2222	0	32781	
2223	0	32752	
2224	0	32684	
2225	0	32828	
2226	0	32936	
2227	0	32888	
2228	0	32680	
2229	0	32584	
2230	0	32608	
2231	0	32692	
2232	0	32680	
2233	0	32656	
2234	0	32812	
2235	0	32805	
2236	0	32864	
2237	0	32897	
2238	0	32912	
2239	0	32892	
2240	0	32812	
2241	0	32794	
2242	0	32756	
2243	0	32824	
2244	0	32765	
2245	0	32772	
2246	0	32774	
2247	0	32801	
2248	0	32868	
2249	0	32776	
2250	0	32700	
2251	0	32708	
2252	0	32693	
2253	0	32624	
2254	0	32622	
2255	0	32612	
2256	0	32756	
2257	0	32844	
2258	0	32824	
2259	0	32728	
2260	0	32916	
2261	0	32972	
2262	0	33128	
2263	0	32992	
2264	0	32856	
2265	0	32740	
2266	0	32501	
2267	0	32576	
2268	0	32628	
2269	0	32736	
2270	0	32724	
2271	0	32704	
2272	0	32780	
2273	0	32720	
2274	0	32808	
2275	0	32772	
2276	0	32760	
2277	0	32824	
2278	0	32776	
2279	0	32853	
2280	0	32861	
2281	0	32820	
2282	0	32812	
2283	0	32860	
2284	0	32856	
2285	0	32876	
2286	0	32860	
2287	0	32808	
2288	0	32728	
2289	0	32704	
2290	0	32748	
2291	0	32716	
2292	0	32676	
2293	0	32620	
2294	0	32652	
2295	0	32734	
2296	0	32812	
2297	0	32816	
2298	0	32816	
2299	0	32872	
2300	0	32876	
2301	0	32964	
2302	0	32836	
2303	0	32884	
2304	0	32784	
2305	0	32696	
2306	0	32733	
2307	0	32800	
2308	0	32716	
2309	0	32664	
2310	0	32768	
2311	0	32748	
2312	0	32708	
2313	0	32708	
2314	0	32736	
2315	0	32749	
2316	0	32808	
2317	0	32880	
2318	0	32932	
2319	0	32876	
2320	0	32818	
2321	0	32772	
2322	0	32809	
2323	0	32780	
2324	0	32740	
2325	0	32766	
2326	0	32824	
2327	0	32824	
2328	0	32784	
2329	0	32640	
2330	0	32612	
2331	0	32708	
2332	0	32740	
2333	0	32756	
2334	0	32772	
2335	0	32748	
2336	0	32768	
2337	0	32910	
2338	0	32801	
2339	0	32904	
2340	0	32884	
2341	0	32912	
2342	0	32844	
2343	0	32792	
2344	0	32705	
2345	0	32696	
2346	0	32780	
2347	0	32880	
2348	0	32720	
2349	0	32780	
2350	0	32772	
2351	0	32776	
2352	0	32784	
2353	0	32628	
2354	0	32592	
2355	0	32704	
2356	0	32840	
2357	0	32920	
2358	0	32844	
2359	0	32881	
2360	0	32868	
2361	0	32800	
2362	0	32782	
2363	0	32844	
2364	0	32848	
2365	0	32804	
2366	0	32732	
2367	0	32716	
2368	0	32732	
2369	0	32668	
2370	0	32638	
2371	0	32564	
2372	0	32756	
2373	0	32884	
2374	0	32912	
2375	0	32928	
2376	0	32844	
2377	0	32754	
2378	0	32788	
2379	0	32748	
2380	0	32804	
2381	0	32822	
2382	0	32853	
2383	0	32748	
2384	0	32744	
2385	0	32808	
2386	0	32804	
2387	0	32812	
2388	0	32852	
2389	0	32720	
2390	0	32748	
2391	0	32704	
2392	0	32765	
2393	0	32776	
2394	0	32684	
2395	0	32632	
2396	0	32762	
2397	0	32845	
2398	0	32848	
2399	0	32808	
2400	0	32900	
2401	0	32884	
2402	0	32804	
2403	0	32748	
2404	0	32800	
2405	0	32772	
2406	0	32736	
2407	0	32684	
2408	0	32801	
2409	0	32760	
2410	0	32620	
2411	0	32801	
2412	0	32748	
2413	0	32764	
2414	0	32712	
2415	0	32704	
2416	0	32748	
2417	0	32816	
2418	0	32848	
2419	0	32840	
2420	0	32832	
2421	0	32836	
2422	0	32809	
2423	0	32804	
2424	0	32790	
2425	0	32756	
2426	0	32684	
2427	0	32720	
2428	0	32840	
2429	0	32820	
2430	0	32920	
2431	0	32884	
2432	0	32776	
2433	0	32656	
2434	0	32692	
2435	0	32692	
2436	0	32696	
2437	0	32854	
2438	0	32916	
2439	0	32864	
2440	0	33052	
2441	0	32968	
2442	0	32861	
2443	0	32720	
2444	0	32492	
2445	0	32521	
2446	0	32600	
2447	0	32660	
2448	0	32516	
2449	0	32524	
2450	0	32792	
2451	0	32856	
2452	0	32828	
2453	0	32756	
2454	0	32780	
2455	0	32776	
2456	0	32885	
2457	0	32840	
2458	0	32868	
2459	0	32800	
2460	0	32808	
2461	0	32768	
2462	0	32772	
2463	0	32756	
2464	0	32820	
2465	0	32804	
2466	0	32800	
2467	0	32724	
2468	0	32692	
2469	0	32736	
2470	0	32801	
2471	0	32764	
2472	0	32732	
2473	0	32824	
2474	0	32804	
2475	0	32740	
2476	0	32696	
2477	0	32864	
2478	0	32844	
2479	0	32832	
2480	0	32800	
2481	0	32796	
2482	0	32752	
2483	0	32804	
2484	0	32772	
2485	0	32888	
2486	0	32860	
2487	0	32884	
2488	0	32724	
2489	0	32696	
2490	0	32688	
2491	0	32696	
2492	0	32645	
2493	0	32576	
2494	0	32648	
2495	0	32840	
2496	0	32780	
2497	0	32872	
2498	0	32876	
2499	0	32908	
2500	0	32796	
2501	0	32794	
2502	0	32768	
2503	0	32804	
2504	0	32782	
2505	0	32772	
2506	0	32832	
2507	0	32784	
2508	0	32741	
2509	0	32696	
2510	0	32750	
2511	0	32820	
2512	0	32781	
2513	0	32708	
2514	0	32748	
2515	0	32852	
2516	0	32892	
2517	0	32640	
2518	0	32764	
2519	0	32685	
2520	0	32704	
2521	0	32832	
2522	0	32876	
2523	0	32920	
2524	0	32908	
2525	0	32864	
2526	0	32748	
2527	0	32724	
2528	0	32772	
2529	0	32692	
2530	0	32704	
2531	0	32616	
2532	0	32564	
2533	0	32660	
2534	0	32704	
2535	0	32868	
2536	0	32884	
2537	0	32864	
2538	0	32840	
2539	0	32877	
2540	0	32840	
2541	0	32799	
2542	0	32774	
2543	0	32790	
2544	0	32772	
2545	0	32900	
2546	0	32852	
2547	0	32848	
2548	0	32792	
2549	0	32784	
2550	0	32824	
2551	0	32716	
2552	0	32780	
2553	0	32740	
2554	0	32744	
2555	0	32744	
2556	0	32780	
2557	0	32796	
2558	0	32824	
2559	0	32740	
2560	0	32692	
2561	0	32636	
2562	0	32768	
2563	0	32876	
2564	0	32842	
2565	0	32860	
2566	0	32864	
2567	0	32820	
2568	0	32812	
2569	0	32804	
2570	0	32800	
2571	0	32728	
2572	0	32748	
2573	0	32712	
2574	0	32692	
2575	0	32808	
2576	0	32764	
2577	0	32820	
2578	0	32816	
2579	0	32668	
2580	0	32700	
2581	0	32752	
2582	0	32798	
2583	0	32832	
2584	0	32844	
2585	0	32865	
2586	0	32740	
2587	0	32708	
2588	0	32749	
2589	0	32852	
2590	0	33016	
2591	0	32776	
2592	0	32653	
2593	0	32784	
2594	0	32708	
2595	0	32692	
2596	0	32772	
2597	0	32832	
2598	0	32860	
2599	0	32824	
2600	0	32853	
2601	0	32661	
2602	0	32676	
2603	0	32820	
2604	0	32820	
2605	0	32836	
2606	0	32820	
2607	0	32740	
2608	0	32756	
2609	0	32736	
2610	0	32788	
2611	0	32768	
2612	0	32760	
2613	0	32704	
2614	0	32780	
2615	0	32756	
2616	0	32796	
2617	0	32804	
2618	0	32804	
2619	0	32952	
2620	0	32992	
2621	0	32860	
2622	0	32673	
2623	0	32752	
2624	0	32740	
2625	0	32716	
2626	0	32745	
2627	0	32752	
2628	0	32860	
2629	0	32764	
2630	0	32716	
2631	0	32620	
2632	0	32852	
2633	0	32760	
2634	0	32728	
2635	0	32764	
2636	0	32775	
2637	0	32728	
2638	0	32712	
2639	0	32824	
2640	0	32828	
2641	0	32784	
2642	0	32864	
2643	0	32884	
2644	0	32844	
2645	0	32762	
2646	0	32800	
2647	0	32840	
2648	0	32792	
2649	0	32788	
2650	0	32696	
2651	0	32676	
2652	0	32749	
2653	0	32729	
2654	0	32857	
2655	0	32764	
2656	0	32796	
2657	0	32777	
2658	0	32762	
2659	0	32840	
2660	0	33028	
2661	0	32864	
2662	0	32840	
2663	0	32792	
2664	0	32760	
2665	0	32668	
2666	0	32800	
2667	0	32836	
2668	0	32824	
2669	0	32768	
2670	0	32661	
2671	0	32660	
2672	0	32712	
2673	0	32700	
2674	0	32702	
2675	0	32772	
2676	0	32772	
2677	0	32744	
2678	0	32756	
2679	0	32844	
2680	0	32924	
2681	0	32858	
2682	0	32848	
2683	0	32956	
2684	0	32853	
2685	0	32812	
2686	0	32868	
2687	0	32772	
2688	0	32729	
2689	0	32788	
2690	0	32676	
2691	0	32716	
2692	0	32740	
2693	0	32784	
2694	0	32744	
2695	0	32768	
2696	0	32733	
2697	0	32812	
2698	0	32776	
2699	0	32680	
2700	0	32756	
2701	0	32848	
2702	0	32740	
2703	0	32840	
2704	0	33056	
2705	0	33024	
2706	0	32940	
2707	0	32796	
2708	0	32812	
2709	0	32644	
2710	0	32636	
2711	0	32624	
2712	0	32700	
2713	0	32688	
2714	0	32692	
2715	0	32736	
2716	0	32768	
2717	0	32798	
2718	0	32858	
2719	0	32840	
2720	0	32832	
2721	0	32844	
2722	0	32888	
2723	0	32868	
2724	0	32848	
2725	0	32768	
2726	0	32808	
2727	0	32784	
2728	0	32448	
2729	0	32344	
2730	0	32852	
2731	0	32920	
2732	0	32836	
2733	0	32802	
2734	0	32800	
2735	0	32792	
2736	0	32728	
2737	0	32752	
2738	0	32824	
2739	0	32832	
2740	0	32820	
2741	0	32904	
2742	0	32870	
2743	0	32816	
2744	0	32884	
2745	0	32852	
2746	0	32720	
2747	0	32824	
2748	0	32788	
2749	0	32590	
2750	0	32601	
2751	0	32768	
2752	0	32748	
2753	0	32736	
2754	0	32740	
2755	0	32876	
2756	0	32860	
2757	0	32820	
2758	0	32816	
2759	0	32788	
2760	0	32788	
2761	0	32788	
2762	0	32760	
2763	0	32928	
2764	0	32992	
2765	0	32849	
2766	0	32796	
2767	0	32781	
2768	0	32768	
2769	0	32636	
2770	0	32468	
2771	0	32632	
2772	0	32776	
2773	0	32764	
2774	0	32768	
2775	0	32826	
2776	0	32812	
2777	0	32848	
2778	0	32848	
2779	0	32868	
2780	0	32845	
2781	0	32740	
2782	0	32796	
2783	0	32856	
2784	0	32796	
2785	0	32800	
2786	0	32772	
2787	0	32800	
2788	0	32812	
2789	0	32748	
2790	0	32676	
2791	0	32724	
2792	0	32712	
2793	0	32676	
2794	0	32672	
2795	0	32724	
2796	0	32785	
2797	0	32856	
2798	0	32910	
2799	0	32924	
2800	0	32812	
2801	0	32784	
2802	0	32764	
2803	0	32704	
2804	0	32758	
2805	0	32964	
2806	0	32892	
2807	0	32816	
2808	0	32852	
2809	0	32964	
2810	0	32696	
2811	0	32624	
2812	0	32628	
2813	0	32576	
2814	0	32597	
2815	0	32764	
2816	0	33008	
2817	0	32948	
2818	0	32742	
2819	0	32628	
2820	0	32708	
2821	0	32832	
2822	0	32840	
2823	0	32844	
2824	0	32904	
2825	0	32888	
2826	0	32752	
2827	0	32873	
2828	0	32688	
2829	0	32664	
2830	0	32640	
2831	0	32696	
2832	0	32780	
2833	0	32788	
2834	0	32808	
2835	0	32756	
2836	0	32804	
2837	0	32828	
2838	0	32868	
2839	0	32789	
2840	0	32744	
2841	0	32744	
2842	0	32776	
2843	0	32840	
2844	0	32716	
2845	0	32704	
2846	0	32780	
2847	0	32812	
2848	0	32813	
2849	0	32748	
2850	0	32670	
2851	0	32788	
2852	0	32684	
2853	0	32804	
2854	0	32800	
2855	0	32752	
2856	0	32788	
2857	0	32856	
2858	0	32888	
2859	0	32892	
2860	0	32884	
2861	0	32788	
2862	0	32680	
2863	0	32612	
2864	0	32781	
2865	0	32734	
2866	0	32788	
2867	0	32788	
2868	0	32696	
2869	0	32664	
2870	0	32789	
2871	0	32704	
2872	0	32764	
2873	0	32840	
2874	0	32908	
2875	0	32800	
2876	0	32748	
2877	0	32788	
2878	0	32809	
2879	0	32760	
2880	0	32772	
2881	0	32772	
2882	0	32852	
2883	0	32740	
2884	0	32972	
2885	0	32970	
2886	0	32812	
2887	0	32748	
2888	0	32712	
2889	0	32740	
2890	0	32648	
2891	0	32736	
2892	0	32744	
2893	0	32664	
2894	0	32612	
2895	0	32692	
2896	0	32760	
2897	0	32688	
2898	0	32740	
2899	0	32861	
2900	0	32884	
2901	0	32968	
2902	0	33020	
2903	0	32820	
2904	0	32744	
2905	0	32776	
2906	0	32788	
2907	0	32828	
2908	0	32952	
2909	0	32932	
2910	0	32774	
2911	0	32678	
2912	0	32640	
2913	0	32501	
2914	0	32572	
2915	0	32688	
2916	0	32864	
2917	0	32924	
2918	0	32928	
2919	0	32956	
2920	0	32692	
2921	0	32696	
2922	0	32685	
2923	0	32820	
2924	0	32901	
2925	0	32824	
2926	0	32852	
2927	0	32865	
2928	0	32800	
2929	0	32705	
2930	0	32728	
2931	0	32708	
2932	0	32692	
2933	0	32676	
2934	0	32608	
2935	0	32672	
2936	0	32840	
2937	0	32876	
2938	0	32852	
2939	0	32872	
2940	0	32820	
2941	0	32846	
2942	0	32790	
2943	0	32836	
2944	0	32784	
2945	0	32828	
2946	0	32820	
2947	0	32868	
2948	0	32796	
2949	0	32768	
2950	0	32762	
2951	0	32686	
2952	0	32718	
2953	0	32728	
2954	0	32740	
2955	0	32788	
2956	0	32748	
2957	0	32750	
2958	0	32784	
2959	0	32852	
2960	0	32903	
2961	0	32836	
2962	0	32836	
2963	0	32808	
2964	0	32814	
2965	0	32896	
2966	0	32812	
2967	0	32776	
2968	0	32809	
2969	0	32848	
2970	0	32796	
2971	0	32756	
2972	0	32728	
2973	0	32728	
2974	0	32756	
2975	0	32676	
2976	0	32644	
2977	0	32740	
2978	0	33021	
2979	0	32852	
2980	0	32816	
2981	0	32820	
2982	0	32788	
2983	0	32776	
2984	0	32804	
2985	0	32870	
2986	0	32796	
2987	0	32784	
2988	0	32748	
2989	0	32724	
2990	0	32704	
2991	0	32702	
2992	0	32832	
2993	0	32732	
2994	0	32728	
2995	0	32852	
2996	0	32821	
2997	0	32832	
2998	0	32788	
2999	0	32784	
3000	0	32728	
3001	0	32797	
3002	0	32805	
3003	0	32820	
3004	0	32836	
3005	0	33004	
3006	0	32868	
3007	0	32788	
3008	0	32852	
3009	0	32740	
3010	0	32704	
3011	0	32832	
3012	0	32876	
3013	0	32781	
3014	0	32760	
3015	0	32704	
3016	0	32636	
3017	0	32692	
3018	0	32688	
3019	0	32740	
3020	0	32812	
3021	0	32776	
3022	0	32804	
3023	0	32840	
3024	0	32672	
3025	0	32668	
3026	0	32780	
3027	0	32909	
3028	0	33020	
3029	0	32928	
3030	0	32856	
3031	0	32776	
3032	0	32816	
3033	0	32920	
3034	0	32764	
3035	0	32708	
3036	0	32848	
3037	0	32832	
3038	0	32696	
3039	0	32828	
3040	0	32880	
3041	0	32912	
3042	0	32828	
3043	0	32860	
3044	0	32936	
3045	0	32888	
3046	0	32852	
3047	0	32752	
3048	0	32752	
3049	0	32848	
3050	0	32808	
3051	0	32689	
3052	0	32648	
3053	0	32780	
3054	0	32768	
3055	0	32720	
3056	0	32728	
3057	0	32708	
3058	0	32788	
3059	0	32796	
3060	0	32756	
3061	0	32748	
3062	0	32748	
3063	0	32804	
3064	0	32820	
3065	0	32764	
3066	0	32752	
3067	0	32820	
3068	0	32804	
3069	0	32801	
3070	0	32608	
3071	0	32628	
3072	0	32640	
3073	0	32605	
3074	0	32588	
3075	0	32692	
3076	0	32780	
3077	0	32724	
3078	0	32804	
3079	0	32820	
3080	0	32716	
3081	0	32788	
3082	0	32872	
3083	0	32868	
3084	0	32844	
3085	0	32736	
3086	0	32676	
3087	0	32840	
3088	0	32928	
3089	0	32744	
3090	0	32716	
3091	0	32820	
3092	0	32828	
3093	0	32844	
3094	0	32944	
3095	0	32956	
3096	0	32940	
3097	0	32932	
3098	0	32972	
3099	0	32984	
3100	0	32988	
3101	0	32868	
3102	0	32868	
3103	0	32824	
3104	0	32769	
3105	0	32820	
3106	0	32740	
3107	0	32756	
3108	0	32772	
3109	0	32733	
3110	0	32692	
3111	0	32656	
3112	0	32676	
3113	0	32728	
3114	0	32628	
3115	0	32720	
3116	0	32612	
3117	0	32644	
3118	0	32804	
3119	0	32820	
3120	0	32824	
3121	0	32836	
3122	0	32736	
3123	0	32792	
3124	0	32764	
3125	0	32736	
3126	0	32632	
3127	0	32816	
3128	0	32852	
3129	0	32832	
3130	0	32832	
3131	0	32768	
3132	0	32709	
3133	0	32740	
3134	0	32768	
3135	0	32796	
3136	0	32756	
3137	0	32829	
3138	0	32860	
3139	0	32808	
3140	0	32772	
3141	0	32844	
3142	0	32824	
3143	0	32836	
3144	0	32720	
3145	0	32688	
3146	0	32660	
3147	0	32708	
3148	0	32628	
3149	0	32868	
3150	0	32900	
3151	0	32772	
3152	0	32688	
3153	0	32648	
3154	0	32624	
3155	0	32592	
3156	0	32580	
3157	0	32826	
3158	0	32928	
3159	0	32904	
3160	0	32960	
3161	0	32812	
3162	0	32874	
3163	0	32788	
3164	0	32664	
3165	0	32644	
3166	0	32686	
3167	0	32768	
3168	0	32728	
3169	0	32736	
3170	0	32692	
3171	0	32672	
3172	0	32636	
3173	0	32780	
3174	0	32724	
3175	0	32688	
3176	0	32760	
3177	0	32814	
3178	0	32908	
3179	0	32932	
3180	0	32856	
3181	0	32892	
3182	0	32905	
3183	0	32892	
3184	0	32852	
3185	0	32854	
3186	0	32872	
3187	0	32816	
3188	0	32828	
3189	0	32772	
3190	0	32716	
3191	0	32644	
3192	0	32896	
3193	0	32920	
3194	0	32656	
3195	0	32612	
3196	0	32686	
3197	0	32764	
3198	0	32724	
3199	0	32808	
3200	0	32748	
3201	0	32732	
3202	0	32760	
3203	0	32748	
3204	0	32808	
3205	0	32784	
3206	0	32782	
3207	0	32791	
3208	0	32776	
3209	0	32696	
3210	0	32692	
3211	0	32677	
3212	0	32732	
3213	0	32796	
3214	0	32677	
3215	0	32648	
3216	0	32784	
3217	0	32836	
3218	0	32916	
3219	0	32840	
3220	0	32884	
3221	0	32766	
3222	0	32700	
3223	0	32680	
3224	0	32684	
3225	0	32628	
3226	0	32645	
3227	0	32806	
3228	0	32792	
3229	0	32784	
3230	0	32756	
3231	0	32920	
3232	0	32836	
3233	0	32848	
3234	0	32724	
3235	0	32768	
3236	0	32760	
3237	0	32847	
3238	0	32844	
3239	0	32945	
3240	0	32828	
3241	0	32861	
3242	0	32804	
3243	0	32844	
3244	0	32784	
3245	0	32724	
3246	0	32696	
3247	0	32784	
3248	0	32816	
3249	0	32716	
3250	0	32756	
3251	0	32752	
3252	0	32768	
3253	0	32801	
3254	0	32744	
3255	0	32740	
3256	0	32758	
3257	0	32768	
3258	0	32864	
3259	0	32784	
3260	0	32764	
3261	0	32772	
3262	0	32775	
3263	0	32873	
3264	0	32924	
3265	0	32868	
3266	0	32756	
3267	0	32788	
3268	0	32796	
3269	0	32640	
3270	0	32700	
3271	0	32648	
3272	0	32672	
3273	0	32712	
3274	0	32696	
3275	0	32744	
3276	0	32756	
3277	0	32790	
3278	0	32812	
3279	0	32764	
3280	0	32800	
3281	0	32804	
3282	0	32784	
3283	0	32704	
3284	0	32808	
3285	0	32808	
3286	0	32748	
3287	0	32760	
3288	0	32776	
3289	0	32716	
3290	0	32668	
3291	0	32708	
3292	0	32732	
3293	0	32764	
3294	0	32826	
3295	0	32800	
3296	0	32884	
3297	0	32860	
3298	0	32886	
3299	0	32892	
3300	0	32884	
3301	0	32872	
3302	0	32837	
3303	0	32864	
3304	0	32856	
3305	0	32824	
3306	0	32820	
3307	0	32932	
3308	0	33000	
3309	0	32988	
3310	0	32833	
3311	0	32812	
3312	0	32716	
3313	0	32720	
3314	0	32600	
3315	0	32536	
3316	0	32644	
3317	0	32748	
3318	0	32960	
3319	0	32800	
3320	0	32848	
3321	0	32748	
3322	0	32804	
3323	0	32864	
3324	0	32944	
3325	0	32904	
3326	0	32752	
3327	0	32768	
3328	0	32780	
3329	0	32768	
3330	0	32640	
3331	0	32652	
3332	0	32716	
3333	0	32740	
3334	0	32742	
3335	0	32688	
3336	0	32816	
3337	0	32884	
3338	0	32808	
3339	0	32692	
3340	0	32760	
3341	0	32676	
3342	0	32836	
3343	0	32856	
3344	0	32848	
3345	0	32750	
3346	0	32789	
3347	0	32701	
3348	0	32712	
3349	0	32704	
3350	0	32841	
3351	0	32800	
3352	0	32712	
3353	0	32684	
3354	0	32568	
3355	0	32548	
3356	0	32696	
3357	0	32764	
3358	0	32812	
3359	0	32820	
3360	0	32756	
3361	0	32772	
3362	0	32868	
3363	0	32776	
3364	0	32804	
3365	0	32717	
3366	0	32792	
3367	0	32756	
3368	0	32808	
3369	0	32864	
3370	0	32681	
3371	0	32701	
3372	0	32832	
3373	0	32757	
3374	0	32590	
3375	0	32685	
3376	0	32728	
3377	0	32736	
3378	0	32748	
3379	0	32928	
3380	0	32925	
3381	0	32996	
3382	0	32860	
3383	0	32812	
3384	0	32828	
3385	0	32868	
3386	0	32832	
3387	0	32872	
3388	0	32778	
3389	0	32840	
3390	0	32700	
3391	0	32744	
3392	0	32760	
3393	0	32960	
3394	0	32736	
3395	0	32661	
3396	0	32720	
3397	0	32814	
3398	0	32800	
3399	0	32816	
3400	0	32740	
3401	0	32802	
3402	0	32880	
3403	0	32860	
3404	0	32861	
3405	0	32804	
3406	0	32792	
3407	0	32732	
3408	0	32868	
3409	0	32700	
3410	0	32560	
3411	0	32512	
3412	0	32604	
3413	0	32780	
3414	0	32876	
3415	0	32800	
3416	0	32752	
3417	0	32744	
3418	0	32832	
3419	0	32828	
3420	0	32816	
3421	0	32808	
3422	0	32764	
3423	0	32736	
3424	0	32744	
3425	0	32652	
3426	0	32784	
3427	0	32892	
3428	0	32900	
3429	0	32796	
3430	0	32756	
3431	0	32736	
3432	0	32728	
3433	0	32705	
3434	0	32728	
3435	0	32796	
3436	0	32756	
3437	0	32668	
3438	0	32748	
3439	0	32814	
3440	0	32856	
3441	0	32824	
3442	0	32876	
3443	0	32836	
3444	0	32844	
3445	0	32736	
3446	0	32901	
3447	0	32852	
3448	0	32860	
3449	0	32836	
3450	0	32736	
3451	0	32482	
3452	0	32664	
3453	0	32620	
3454	0	32608	
3455	0	32684	
3456	0	32732	
3457	0	32764	
3458	0	32852	
3459	0	32900	
3460	0	32966	
3461	0	32888	
3462	0	32784	
3463	0	32832	
3464	0	32720	
3465	0	32696	
3466	0	32680	
3467	0	32780	
3468	0	32780	
3469	0	32760	
3470	0	32816	
3471	0	32736	
3472	0	32704	
3473	0	32696	
3474	0	32709	
3475	0	32680	
3476	0	32640	
3477	0	32748	
3478	0	32788	
3479	0	32932	
3480	0	32984	
3481	0	32892	
3482	0	32872	
3483	0	32732	
3484	0	32916	
3485	0	32800	
3486	0	32684	
3487	0	32596	
3488	0	32796	
3489	0	32716	
3490	0	32768	
3491	0	32876	
3492	0	32812	
3493	0	32780	
3494	0	32688	
3495	0	32689	
3496	0	32740	
3497	0	32888	
3498	0	32844	
3499	0	32861	
3500	0	32836	
3501	0	32788	
3502	0	32804	
3503	0	32756	
3504	0	32782	
3505	0	32852	
3506	0	32800	
3507	0	32816	
3508	0	32825	
3509	0	32752	
3510	0	32736	
3511	0	32692	
3512	0	32733	
3513	0	32776	
3514	0	32696	
3515	0	32725	
3516	0	32704	
3517	0	32752	
3518	0	32772	
3519	0	32864	
3520	0	32888	
3521	0	32902	
3522	0	32818	
3523	0	32804	
3524	0	32816	
3525	0	32752	
3526	0	32624	
3527	0	32772	
3528	0	32876	
3529	0	32892	
3530	0	32813	
3531	0	32684	
3532	0	32740	
3533	0	32612	
3534	0	32560	
3535	0	32592	
3536	0	32660	
3537	0	32804	
3538	0	32956	
3539	0	32932	
3540	0	32988	
3541	0	32964	
3542	0	32920	
3543	0	32936	
3544	0	32860	
3545	0	32712	
3546	0	32636	
3547	0	32500	
3548	0	32652	
3549	0	32832	
3550	0	32740	
3551	0	32776	
3552	0	32748	
3553	0	32788	
3554	0	32676	
3555	0	32656	
3556	0	32792	
3557	0	32772	
3558	0	32808	
3559	0	32824	
3560	0	32890	
3561	0	32893	
3562	0	32908	
3563	0	32836	
3564	0	32800	
3565	0	32752	
3566	0	32757	
3567	0	32604	
3568	0	32664	
3569	0	32716	
3570	0	32660	
3571	0	32833	
3572	0	32748	
3573	0	32728	
3574	0	32680	
3575	0	32816	
3576	0	32692	
3577	0	32812	
3578	0	32864	
3579	0	32828	
3580	0	32879	
3581	0	32844	
3582	0	32836	
3583	0	32806	
3584	0	32800	
3585	0	32768	
3586	0	32876	
3587	0	32808	
3588	0	32824	
3589	0	32750	
3590	0	32716	
3591	0	32748	
3592	0	32628	
3593	0	32812	
3594	0	32740	
3595	0	32736	
3596	0	32780	
3597	0	32756	
3598	0	32798	
3599	0	32740	
3600	0	32776	
3601	0	32662	
3602	0	32820	
3603	0	32932	
3604	0	32968	
3605	0	32948	
3606	0	32924	
3607	0	32877	
3608	0	32792	
3609	0	32736	
3610	0	32740	
3611	0	32724	
3612	0	32636	
3613	0	32624	
3614	0	32740	
3615	0	32808	
3616	0	32741	
3617	0	32748	
3618	0	32876	
3619	0	32956	
3620	0	32784	
3621	0	32753	
3622	0	32740	
3623	0	32736	
3624	0	32828	
3625	0	32812	
3626	0	32832	
3627	0	32856	
3628	0	32928	
3629	0	32756	
3630	0	32544	
3631	0	32568	
3632	0	32680	
3633	0	32736	
3634	0	32836	
3635	0	32708	
3636	0	32782	
3637	0	32768	
3638	0	32868	
3639	0	32928	
3640	0	32888	
3641	0	32844	
3642	0	32776	
3643	0	32716	
3644	0	32660	
3645	0	32520	
3646	0	32644	
3647	0	32696	
3648	0	32736	
3649	0	32768	
3650	0	32816	
3651	0	32768	
3652	0	32676	
3653	0	32712	
3654	0	32709	
3655	0	32696	
3656	0	32685	
3657	0	32736	
3658	0	32824	
3659	0	32848	
3660	0	32856	
3661	0	32820	
3662	0	32888	
3663	0	32880	
3664	0	32860	
3665	0	32814	
3666	0	32848	
3667	0	32832	
3668	0	32832	
3669	0	32784	
3670	0	32792	
3671	0	32684	
3672	0	32872	
3673	0	32732	
3674	0	32652	
3675	0	32680	
3676	0	32768	
3677	0	32802	
3678	0	32816	
3679	0	32838	
3680	0	32876	
3681	0	32872	
3682	0	32868	
3683	0	32916	
3684	0	32816	
3685	0	32940	
3686	0	32772	
3687	0	32728	
3688	0	32732	
3689	0	32674	
3690	0	32652	
3691	0	32597	
3692	0	32548	
3693	0	32520	
3694	0	32676	
3695	0	32704	
3696	0	32740	
3697	0	32705	
3698	0	32840	
3699	0	32844	
3700	0	32808	
3701	0	32648	
3702	0	32740	
3703	0	32772	
3704	0	32743	
3705	0	32765	
3706	0	32760	
3707	0	32824	
3708	0	32916	
3709	0	33041	
3710	0	32788	
3711	0	32724	
3712	0	32769	
3713	0	32776	
3714	0	32713	
3715	0	32564	
3716	0	32624	
3717	0	32844	
3718	0	32889	
3719	0	32992	
3720	0	32968	
3721	0	32912	
3722	0	32848	
3723	0	32768	
3724	0	32778	
3725	0	32784	
3726	0	32656	
3727	0	32720	
3728	0	32853	
3729	0	32832	
3730	0	32720	
3731	0	32693	
3732	0	32732	
3733	0	32772	
3734	0	32748	
3735	0	32716	
3736	0	32684	
3737	0	32770	
3738	0	32796	
3739	0	32948	
3740	0	32904	
3741	0	32836	
3742	0	32804	
3743	0	32792	
3744	0	32856	
3745	0	32809	
3746	0	32796	
3747	0	32768	
3748	0	32764	
3749	0	32740	
3750	0	32820	
3751	0	32656	
3752	0	32640	
3753	0	32748	
3754	0	32848	
3755	0	32780	
3756	0	32748	
3757	0	32864	
3758	0	32868	
3759	0	32672	
3760	0	32648	
3761	0	32608	
3762	0	32728	
3763	0	32708	
3764	0	32672	
3765	0	32640	
3766	0	32644	
3767	0	32632	
3768	0	32800	
3769	0	32820	
3770	0	32725	
3771	0	32728	
3772	0	32800	
3773	0	32696	
3774	0	32812	
3775	0	32728	
3776	0	32590	
3777	0	32612	
3778	0	32672	
3779	0	32804	
3780	0	32904	
3781	0	32948	
3782	0	32929	
3783	0	32808	
3784	0	32869	
3785	0	32832	
3786	0	32832	
3787	0	32732	
3788	0	32748	
3789	0	32820	
3790	0	32700	
3791	0	32708	
3792	0	32804	
3793	0	32824	
3794	0	32816	
3795	0	32780	
3796	0	32728	
3797	0	32800	
3798	0	32841	
3799	0	32868	
3800	0	32916	
3801	0	32813	
3802	0	32816	
3803	0	32960	
3804	0	32856	
3805	0	32776	
3806	0	32800	
3807	0	32764	
3808	0	32916	
3809	0	32916	
3810	0	32892	
3811	0	32784	
3812	0	32684	
3813	0	32604	
3814	0	32688	
3815	0	32768	
3816	0	32720	
3817	0	32844	
3818	0	32932	
3819	0	32828	
3820	0	32900	
3821	0	32792	
3822	0	32713	
3823	0	32668	
3824	0	32680	
3825	0	32956	
3826	0	32924	
3827	0	32768	
3828	0	32844	
3829	0	32840	
3830	0	32796	
3831	0	32712	
3832	0	32704	
3833	0	32712	
3834	0	32696	
3835	0	32680	
3836	0	32744	
3837	0	32781	
3838	0	32748	
3839	0	32808	
3840	0	32852	
3841	0	33017	
3842	0	32902	
3843	0	32816	
3844	0	32720	
3845	0	32876	
3846	0	32785	
3847	0	32788	
3848	0	32808	
3849	0	32808	
3850	0	32756	
3851	0	32844	
3852	0	32728	
3853	0	32688	
3854	0	32608	
3855	0	32644	
3856	0	32696	
3857	0	32856	
3858	0	32924	
3859	0	32924	
3860	0	32853	
3861	0	32816	
3862	0	32752	
3863	0	32756	
3864	0	32770	
3865	0	32908	
3866	0	32812	
3867	0	32860	
3868	0	32796	
3869	0	32788	
3870	0	32776	
3871	0	32728	
3872	0	32709	
3873	0	32704	
3874	0	32672	
3875	0	32696	
3876	0	32704	
3877	0	32708	
3878	0	32816	
3879	0	32860	
3880	0	32880	
3881	0	32864	
3882	0	32848	
3883	0	32728	
3884	0	32824	
3885	0	32800	
3886	0	32889	
3887	0	32732	
3888	0	32806	
3889	0	32788	
3890	0	32828	
3891	0	32644	
3892	0	32620	
3893	0	32708	
3894	0	32796	
3895	0	32788	
3896	0	32772	
3897	0	32728	
3898	0	32736	
3899	0	32804	
3900	0	32708	
3901	0	32780	
3902	0	32756	
3903	0	32900	
3904	0	32879	
3905	0	32952	
3906	0	32880	
3907	0	32857	
3908	0	32808	
3909	0	32796	
3910	0	32736	
3911	0	32640	
3912	0	32596	
3913	0	32620	
3914	0	32744	
3915	0	32740	
3916	0	32968	
3917	0	32936	
3918	0	32910	
3919	0	32872	
3920	0	32776	
3921	0	32788	
3922	0	32780	
3923	0	32808	
3924	0	32780	
3925	0	32760	
3926	0	32848	
3927	0	32808	
3928	0	32840	
3929	0	32832	
3930	0	32708	
3931	0	32701	
3932	0	32724	
3933	0	32676	
3934	0	32736	
3935	0	32724	
3936	0	32768	
3937	0	32620	
3938	0	32620	
3939	0	32888	
3940	0	33152	
3941	0	32980	
3942	0	32775	
3943	0	32764	
3944	0	32812	
3945	0	32788	
3946	0	32748	
3947	0	32788	
3948	0	32853	
3949	0	32812	
3950	0	32900	
3951	0	32828	
3952	0	32760	
3953	0	32748	
3954	0	32596	
3955	0	32628	
3956	0	32656	
3957	0	32636	
3958	0	32673	
3959	0	32684	
3960	0	32880	
3961	0	33009	
3962	0	32996	
3963	0	32896	
3964	0	32824	
3965	0	32814	
3966	0	32760	
3967	0	32792	
3968	0	32734	
3969	0	32790	
3970	0	32760	
3971	0	32776	
3972	0	32692	
3973	0	32777	
3974	0	32736	
3975	0	32692	
3976	0	32792	
3977	0	32792	
3978	0	32926	
3979	0	32760	
3980	0	32480	
3981	0	32772	
3982	0	32852	
3983	0	32900	
3984	0	32781	
3985	0	32824	
3986	0	32753	
3987	0	32756	
3988	0	32760	
3989	0	32820	
3990	0	32965	
3991	0	32728	
3992	0	32664	
3993	0	32748	
3994	0	32812	
3995	0	32696	
3996	0	32640	
3997	0	32720	
3998	0	32785	
3999	0	32840	
4000	0	32900	
4001	0	32886	
4002	0	32800	
4003	0	32740	
4004	0	32702	
4005	0	32796	
4006	0	32904	
4007	0	32908	
4008	0	32788	
4009	0	32784	
4010	0	32812	
4011	0	32708	
4012	0	32604	
4013	0	32616	
4014	0	32700	
4015	0	32874	
4016	0	32872	
4017	0	32784	
4018	0	32788	
4019	0	32857	
4020	0	32856	
4021	0	32788	
4022	0	32760	
4023	0	32720	
4024	0	32712	
4025	0	32752	
4026	0	32729	
4027	0	32800	
4028	0	32750	
4029	0	32772	
4030	0	32752	
4031	0	32688	
4032	0	32636	
4033	0	32700	
4034	0	32673	
4035	0	32556	
4036	0	32412	
4037	0	32528	
4038	0	32812	
4039	0	32696	
4040	0	32680	
4041	0	32700	
4042	0	32828	
4043	0	32904	
4044	0	32892	
4045	0	32959	
4046	0	32932	
4047	0	32896	
4048	0	32868	
4049	0	32857	
4050	0	32852	
4051	0	32720	
4052	0	32657	
4053	0	32768	
4054	0	32720	
4055	0	32628	
4056	0	32732	
4057	0	32752	
4058	0	32804	
4059	0	32860	
4060	0	32864	
4061	0	32892	
4062	0	32812	
4063	0	32824	
4064	0	32928	
4065	0	32776	
4066	0	32804	
4067	0	32824	
4068	0	32845	
4069	0	32924	
4070	0	32836	
4071	0	32776	
4072	0	32752	
4073	0	32612	
4074	0	32797	
4075	0	32816	
4076	0	32716	
4077	0	32676	
4078	0	32716	
4079	0	32880	
4080	0	32840	
4081	0	32844	
4082	0	32789	
4083	0	32820	
4084	0	32776	
4085	0	32848	
4086	0	32820	
4087	0	32814	
4088	0	32892	
4089	0	32796	
4090	0	32792	
4091	0	32768	
4092	0	32684	
4093	0	32696	
4094	0	32804	
4095	0	32680	
4096	0	32700	
4097	0	32760	
4098	0	32828	
4099	0	32730	
4100	0	32774	
4101	0	32828	
4102	0	32896	
4103	0	32973	
4104	0	32824	
4105	0	32740	
4106	0	32748	
4107	0	32716	
4108	0	32792	
4109	0	32804	
4110	0	32868	
4111	0	32758	
4112	0	32748	
4113	0	32680	
4114	0	32744	
4115	0	32748	
4116	0	32628	
4117	0	32692	
4118	0	32732	
4119	0	32856	
4120	0	32878	
4121	0	32936	
4122	0	32874	
4123	0	32856	
4124	0	32844	
4125	0	32628	
4126	0	32597	
4127	0	32528	
4128	0	32740	
4129	0	32832	
4130	0	32804	
4131	0	32868	
4132	0	32908	
4133	0	32920	
4134	0	32972	
4135	0	32997	
4136	0	32716	
4137	0	32740	
4138	0	32764	
4139	0	32768	
4140	0	32728	
4141	0	32693	
4142	0	32820	
4143	0	32860	
4144	0	32764	
4145	0	32736	
4146	0	32752	
4147	0	32816	
4148	0	32802	
4149	0	32848	
4150	0	32832	
4151	0	32744	
4152	0	32633	
4153	0	32712	
4154	0	32740	
4155	0	32672	
4156	0	32630	
4157	0	32812	
4158	0	32784	
4159	0	32836	
4160	0	32872	
4161	0	32881	
4162	0	32817	
4163	0	32840	
4164	0	32828	
4165	0	32812	
4166	0	32804	
4167	0	32752	
4168	0	32793	
4169	0	32800	
4170	0	32780	
4171	0	32680	
4172	0	32688	
4173	0	32798	
4174	0	32736	
4175	0	32708	
4176	0	32668	
4177	0	32596	
4178	0	32741	
4179	0	32812	
4180	0	32728	
4181	0	32920	
4182	0	33144	
4183	0	33004	
4184	0	32853	
4185	0	32716	
4186	0	32747	
4187	0	32761	
4188	0	32698	
4189	0	32806	
4190	0	32804	
4191	0	32724	
4192	0	32712	
4193	0	32708	
4194	0	32752	
4195	0	32676	
4196	0	32696	
4197	0	32684	
4198	0	32734	
4199	0	32960	
4200	0	32948	
4201	0	32809	
4202	0	32748	
4203	0	32849	
4204	0	32888	
4205	0	32856	
4206	0	32832	
4207	0	32733	
4208	0	32668	
4209	0	32784	
4210	0	32756	
4211	0	32770	
4212	0	32744	
4213	0	32724	
4214	0	32736	
4215	0	32640	
4216	0	32568	
4217	0	32740	
4218	0	32816	
4219	0	32784	
4220	0	32829	
4221	0	32918	
4222	0	32860	
4223	0	32800	
4224	0	32758	
4225	0	32834	
4226	0	32776	
4227	0	32740	
4228	0	32840	
4229	0	32796	
4230	0	32860	
4231	0	32712	
4232	0	32708	
4233	0	32740	
4234	0	32700	
4235	0	32708	
4236	0	32704	
4237	0	32700	
4238	0	32716	
4239	0	32844	
4240	0	32884	
4241	0	32836	
4242	0	32948	
4243	0	32796	
4244	0	32796	
4245	0	32741	
4246	0	32684	
4247	0	32764	
4248	0	32748	
4249	0	32721	
4250	0	32724	
4251	0	32732	
4252	0	32792	
4253	0	32788	
4254	0	32788	
4255	0	32714	
4256	0	32696	
4257	0	32728	
4258	0	32736	
4259	0	32740	
4260	0	32848	
4261	0	32868	
4262	0	32796	
4263	0	32828	
4264	0	32848	
4265	0	32832	
4266	0	32776	
4267	0	32780	
4268	0	32888	
4269	0	32792	
4270	0	32836	
4271	0	32785	
4272	0	32760	
4273	0	32716	
4274	0	32872	
4275	0	32860	
4276	0	32728	
4277	0	32712	
4278	0	32816	
4279	0	32716	
4280	0	32669	
4281	0	32704	
4282	0	32830	
4283	0	32820	
4284	0	32832	
4285	0	32788	
4286	0	32660	
4287	0	32712	
4288	0	32968	
4289	0	32936	
4290	0	32844	
4291	0	32748	
4292	0	32708	
4293	0	32592	
4294	0	32520	
4295	0	32456	
4296	0	32812	
4297	0	32916	
4298	0	32792	
4299	0	32816	
4300	0	32820	
4301	0	32920	
4302	0	32848	
4303	0	32840	
4304	0	32761	
4305	0	32880	
4306	0	32768	
4307	0	32808	
4308	0	32756	
4309	0	32932	
4310	0	32788	
4311	0	32704	
4312	0	32756	
4313	0	32772	
4314	0	32744	
4315	0	32664	
4316	0	32668	
4317	0	32732	
4318	0	32732	
4319	0	32708	
4320	0	32688	
4321	0	32810	
4322	0	32868	
4323	0	32952	
4324	0	32970	
4325	0	32864	
4326	0	32775	
4327	0	32828	
4328	0	32784	
4329	0	32824	
4330	0	32790	
4331	0	32740	
4332	0	32748	
4333	0	32724	
4334	0	32724	
4335	0	32736	
4336	0	32724	
4337	0	32716	
4338	0	32736	
4339	0	32784	
4340	0	32728	
4341	0	32865	
4342	0	32984	
4343	0	32900	
4344	0	32816	
4345	0	32716	
4346	0	32820	
4347	0	32824	
4348	0	32741	
4349	0	32776	
4350	0	32876	
4351	0	32696	
4352	0	32712	
4353	0	32708	
4354	0	32728	
4355	0	32684	
4356	0	32688	
4357	0	32744	
4358	0	32708	
4359	0	32820	
4360	0	32800	
4361	0	32692	
4362	0	32868	
4363	0	32888	
4364	0	32948	
4365	0	32972	
4366	0	32836	
4367	0	32736	
4368	0	32784	
4369	0	32760	
4370	0	32760	
4371	0	32736	
4372	0	32740	
4373	0	32744	
4374	0	32744	
4375	0	32700	
4376	0	32740	
4377	0	32788	
4378	0	32776	
4379	0	32828	
4380	0	32868	
4381	0	32802	
4382	0	32656	
4383	0	32444	
4384	0	32312	
4385	0	32704	
4386	0	33104	
4387	0	33048	
4388	0	32856	
4389	0	32902	
4390	0	32933	
4391	0	32860	
4392	0	32712	
4393	0	32548	
4394	0	32620	
4395	0	32676	
4396	0	32772	
4397	0	32776	
4398	0	32720	
4399	0	32792	
4400	0	32822	
4401	0	32908	
4402	0	32844	
4403	0	32820	
4404	0	32832	
4405	0	32764	
4406	0	32852	
4407	0	32760	
4408	0	32744	
4409	0	32772	
4410	0	32752	
4411	0	32820	
4412	0	32948	
4413	0	32760	
4414	0	32617	
4415	0	32708	
4416	0	32684	
4417	0	32748	
4418	0	32744	
4419	0	32733	
4420	0	32824	
4421	0	32856	
4422	0	32784	
4423	0	32744	
4424	0	32856	
4425	0	32804	
4426	0	32756	
4427	0	32792	
4428	0	32872	
4429	0	32848	
4430	0	32804	
4431	0	32676	
4432	0	32632	
4433	0	32644	
4434	0	32629	
4435	0	32762	
4436	0	32860	
4437	0	32880	
4438	0	32885	
4439	0	32852	
4440	0	32864	
4441	0	32812	
4442	0	32876	
4443	0	32816	
4444	0	32790	
4445	0	32768	
4446	0	32748	
4447	0	32712	
4448	0	32664	
4449	0	32780	
4450	0	32808	
4451	0	32824	
4452	0	32796	
4453	0	32770	
4454	0	32701	
4455	0	32656	
4456	0	32740	
4457	0	32800	
4458	0	32744	
4459	0	32660	
4460	0	32644	
4461	0	32764	
4462	0	32832	
4463	0	32916	
4464	0	32812	
4465	0	32856	
4466	0	32920	
4467	0	33000	
4468	0	32884	
4469	0	32800	
4470	0	32720	
4471	0	32876	
4472	0	32824	
4473	0	32692	
4474	0	32620	
4475	0	32590	
4476	0	32504	
4477	0	32472	
4478	0	32620	
4479	0	32828	
4480	0	33088	
4481	0	33040	
4482	0	32900	
4483	0	32848	
4484	0	32844	
4485	0	32776	
4486	0	32784	
4487	0	32800	
4488	0	32768	
4489	0	32776	
4490	0	32808	
4491	0	32816	
4492	0	32825	
4493	0	32720	
4494	0	32768	
4495	0	32725	
4496	0	32722	
4497	0	32784	
4498	0	32660	
4499	0	32820	
4500	0	32784	
4501	0	32836	
4502	0	32840	
4503	0	32816	
4504	0	32748	
4505	0	32792	
4506	0	32796	
4507	0	32740	
4508	0	32756	
4509	0	32816	
4510	0	32796	
4511	0	32796	
4512	0	32576	
4513	0	32704	
4514	0	32788	
4515	0	32772	
4516	0	32772	
4517	0	32762	
4518	0	32814	
4519	0	32832	
4520	0	32920	
4521	0	32871	
4522	0	32728	
4523	0	32790	
4524	0	32804	
4525	0	32796	
4526	0	32790	
4527	0	32684	
4528	0	32764	
4529	0	32860	
4530	0	32824	
4531	0	32661	
4532	0	32704	
4533	0	32716	
4534	0	32676	
4535	0	32680	
4536	0	32768	
4537	0	32751	
4538	0	32772	
4539	0	32784	
4540	0	32780	
4541	0	32864	
4542	0	32868	
4543	0	32825	
4544	0	32724	
4545	0	32688	
4546	0	32856	
4547	0	32964	
4548	0	33004	
4549	0	32852	
4550	0	32728	
4551	0	32788	
4552	0	32788	
4553	0	32664	
4554	0	32656	
4555	0	32612	
4556	0	32687	
4557	0	32652	
4558	0	32744	
4559	0	32880	
4560	0	33013	
4561	0	32861	
4562	0	32800	
4563	0	32752	
4564	0	32775	
4565	0	32828	
4566	0	32869	
4567	0	32812	
4568	0	32800	
4569	0	32864	
4570	0	32814	
4571	0	32717	
4572	0	32592	
4573	0	32684	
4574	0	32724	
4575	0	32716	
4576	0	32744	
4577	0	32692	
4578	0	32676	
4579	0	32744	
4580	0	32736	
4581	0	32812	
4582	0	32893	
4583	0	32840	
4584	0	32764	
4585	0	32964	
4586	0	32936	
4587	0	32836	
4588	0	32840	
4589	0	32804	
4590	0	32756	
4591	0	32686	
4592	0	32756	
4593	0	32684	
4594	0	32628	
4595	0	32716	
4596	0	32760	
4597	0	32744	
4598	0	32696	
4599	0	32692	
4600	0	32776	
4601	0	32848	
4602	0	33016	
4603	0	32876	
4604	0	32796	
4605	0	32772	
4606	0	32744	
4607	0	32728	
4608	0	32864	
4609	0	33168	
4610	0	32960	
4611	0	32804	
4612	0	32436	
4613	0	32536	
4614	0	32648	
4615	0	32568	
4616	0	32568	
4617	0	32736	
4618	0	32724	
4619	0	32744	
4620	0	32868	
4621	0	32856	
4622	0	32860	
4623	0	32920	
4624	0	32856	
4625	0	32776	
4626	0	32868	
4627	0	32908	
4628	0	32888	
4629	0	32812	
4630	0	32844	
4631	0	32756	
4632	0	32580	
4633	0	32564	
4634	0	32712	
4635	0	32817	
4636	0	32756	
4637	0	32712	
4638	0	32800	
4639	0	32792	
4640	0	32800	
4641	0	32776	
4642	0	32774	
4643	0	32796	
4644	0	32744	
4645	0	32768	
4646	0	32848	
4647	0	32856	
4648	0	32820	
4649	0	32933	
4650	0	32840	
4651	0	32788	
4652	0	32740	
4653	0	32660	
4654	0	32681	
4655	0	32765	
4656	0	32728	
4657	0	32700	
4658	0	32752	
4659	0	32804	
4660	0	32868	
4661	0	32824	
4662	0	32704	
4663	0	32784	
4664	0	32868	
4665	0	32752	
4666	0	32840	
4667	0	32808	
4668	0	32796	
4669	0	32772	
4670	0	32744	
4671	0	32768	
4672	0	32661	
4673	0	32652	
4674	0	32698	
4675	0	32774	
4676	0	32776	
4677	0	32792	
4678	0	33164	
4679	0	32992	
4680	0	32816	
4681	0	32624	
4682	0	32636	
4683	0	32832	
4684	0	32852	
4685	0	32824	
4686	0	32804	
4687	0	32700	
4688	0	32740	
4689	0	32732	
4690	0	32768	
4691	0	32780	
4692	0	32808	
4693	0	32792	
4694	0	32741	
4695	0	32756	
4696	0	32676	
4697	0	32717	
4698	0	32804	
4699	0	32892	
4700	0	32848	
4701	0	32708	
4702	0	32776	
4703	0	32944	
4704	0	32920	
4705	0	32668	
4706	0	32496	
4707	0	32728	
4708	0	32856	
4709	0	32836	
4710	0	32828	
4711	0	32868	
4712	0	32926	
4713	0	32788	
4714	0	32734	
4715	0	32768	
4716	0	32745	
4717	0	32656	
4718	0	32640	
4719	0	32608	
4720	0	32928	
4721	0	32844	
4722	0	32824	
4723	0	32792	
4724	0	32812	
4725	0	32792	
4726	0	32824	
4727	0	32820	
4728	0	32778	
4729	0	32804	
4730	0	32836	
4731	0	32776	
4732	0	32748	
4733	0	32632	
4734	0	32620	
4735	0	32724	
4736	0	32741	
4737	0	32726	
4738	0	32660	
4739	0	32742	
4740	0	32796	
4741	0	32776	
4742	0	32840	
4743	0	33008	
4744	0	32885	
4745	0	32856	
4746	0	32788	
4747	0	32808	
4748	0	32904	
4749	0	32816	
4750	0	32812	
4751	0	32756	
4752	0	32702	
4753	0	32684	
4754	0	32744	
4755	0	32748	
4756	0	32660	
4757	0	32732	
4758	0	32720	
4759	0	32744	
4760	0	32792	
4761	0	32800	
4762	0	32756	
4763	0	32888	
4764	0	32788	
4765	0	32816	
4766	0	32832	
4767	0	32792	
4768	0	32844	
4769	0	32824	
4770	0	32812	
4771	0	32728	
4772	0	32692	
4773	0	32654	
4774	0	32712	
4775	0	32772	
4776	0	32886	
4777	0	32808	
4778	0	32752	
4779	0	32800	
4780	0	32816	
4781	0	32786	
4782	0	32865	
4783	0	32860	
4784	0	32856	
4785	0	32764	
4786	0	32800	
4787	0	32820	
4788	0	32728	
4789	0	32768	
4790	0	32728	
4791	0	32688	
4792	0	32776	
4793	0	32832	
4794	0	32752	
4795	0	32784	
4796	0	32734	
4797	0	32764	
4798	0	32868	
4799	0	32924	
4800	0	32821	
4801	0	32449	
4802	0	32588	
4803	0	32720	
4804	0	32821	
4805	0	32796	
4806	0	32776	
4807	0	32740	
4808	0	32760	
4809	0	32872	
4810	0	32804	
4811	0	32856	
4812	0	32828	
4813	0	32772	
4814	0	32909	
4815	0	32892	
4816	0	32740	
4817	0	32637	
4818	0	32672	
4819	0	32692	
4820	0	32780	
4821	0	32816	
4822	0	32834	
4823	0	32888	
4824	0	32885	
4825	0	32824	
4826	0	32824	
4827	0	32856	
4828	0	32716	
4829	0	32773	
4830	0	32760	
4831	0	32697	
4832	0	32652	
4833	0	32680	
4834	0	32776	
4835	0	32788	
4836	0	32632	
4837	0	32696	
4838	0	32708	
4839	0	32844	
4840	0	32880	
4841	0	32796	
4842	0	32880	
4843	0	32776	
4844	0	32821	
4845	0	32740	
4846	0	32812	
4847	0	32793	
4848	0	32756	
4849	0	32832	
4850	0	32760	
4851	0	32892	
4852	0	32752	
4853	0	32860	
4854	0	32800	
4855	0	32756	
4856	0	32568	
4857	0	32712	
4858	0	32692	
4859	0	32788	
4860	0	32816	
4861	0	32872	
4862	0	32808	
4863	0	32772	
4864	0	32732	
4865	0	32816	
4866	0	32856	
4867	0	32892	
4868	0	32800	
4869	0	32828	
4870	0	32821	
4871	0	32840	
4872	0	32728	
4873	0	32688	
4874	0	32824	
4875	0	32676	
4876	0	32628	
4877	0	32632	
4878	0	32752	
4879	0	32768	
4880	0	32756	
4881	0	32852	
4882	0	32804	
4883	0	32704	
4884	0	32808	
4885	0	32776	
4886	0	32820	
4887	0	33048	
4888	0	32816	
4889	0	32792	
4890	0	32724	
4891	0	32792	
4892	0	32816	
4893	0	32713	
4894	0	32740	
4895	0	32720	
4896	0	32701	
4897	0	32681	
4898	0	32684	
4899	0	32708	
4900	0	32872	
4901	0	32812	
4902	0	32788	
4903	0	32812	
4904	0	32780	
4905	0	32756	
4906	0	32800	
4907	0	32804	
4908	0	32794	
4909	0	32868	
4910	0	32832	
4911	0	32800	
4912	0	32700	
4913	0	32656	
4914	0	32656	
4915	0	32748	
4916	0	32716	
4917	0	32804	
4918	0	32824	
4919	0	32852	
4920	0	32792	
4921	0	32756	
4922	0	32776	
4923	0	32808	
4924	0	32802	
4925	0	32783	
4926	0	32848	
4927	0	32908	
4928	0	32856	
4929	0	32796	
4930	0	32863	
4931	0	32800	
4932	0	32768	
4933	0	32780	
4934	0	32728	
4935	0	32712	
4936	0	32672	
4937	0	32709	
4938	0	32716	
4939	0	32820	
4940	0	32894	
4941	0	32820	
4942	0	32876	
4943	0	32780	
4944	0	32732	
4945	0	32797	
4946	0	32800	
4947	0	32804	
4948	0	32776	
4949	0	32821	
4950	0	32800	
4951	0	32932	
4952	0	32820	
4953	0	32712	
4954	0	32652	
4955	0	32628	
4956	0	32620	
4957	0	32648	
4958	0	32916	
4959	0	33100	
4960	0	32953	
4961	0	32812	
4962	0	32856	
4963	0	32836	
4964	0	32752	
4965	0	32692	
4966	0	32660	
4967	0	32780	
4968	0	32868	
4969	0	32688	
4970	0	32744	
4971	0	32748	
4972	0	32852	
4973	0	32784	
4974	0	32700	
4975	0	32544	
4976	0	32568	
4977	0	32632	
4978	0	32913	
4979	0	32872	
4980	0	32765	
4981	0	32776	
4982	0	32917	
4983	0	32913	
4984	0	32925	
4985	0	32877	
4986	0	32884	
4987	0	32812	
4988	0	32720	
4989	0	32636	
4990	0	32784	
4991	0	32800	
4992	0	32884	
4993	0	32792	
4994	0	32696	
4995	0	32768	
4996	0	32596	
4997	0	32596	
4998	0	32800	
4999	0	32808	
5000	0	32980	
5001	0	32852	
5002	0	32816	
5003	0	32744	
5004	0	32812	
5005	0	32852	
5006	0	32828	
5007	0	32780	
5008	0	32848	
5009	0	32832	
5010	0	32806	
5011	0	32812	
5012	0	32696	
5013	0	32676	
5014	0	32756	
5015	0	32752	
5016	0	32776	
5017	0	32668	
5018	0	32740	
5019	0	32809	
5020	0	32864	
5021	0	32808	
5022	0	32832	
5023	0	32840	
5024	0	32800	
5025	0	32720	
5026	0	32808	
5027	0	32796	
5028	0	32760	
5029	0	32756	
5030	0	32768	
5031	0	32680	
5032	0	32676	
5033	0	32848	
5034	0	32920	
5035	0	32932	
5036	0	32868	
5037	0	32740	
5038	0	32676	
5039	0	32678	
5040	0	32720	
5041	0	32744	
5042	0	32804	
5043	0	32932	
5044	0	32948	
5045	0	32844	
5046	0	32696	
5047	0	32716	
5048	0	32704	
5049	0	32732	
5050	0	32780	
5051	0	32820	
5052	0	32774	
5053	0	32780	
5054	0	32765	
5055	0	32788	
5056	0	32805	
5057	0	32700	
5058	0	32716	
5059	0	32520	
5060	0	32660	
5061	0	32832	
5062	0	32748	
5063	0	32724	
5064	0	32812	
5065	0	32908	
5066	0	32904	
5067	0	32944	
5068	0	32920	
5069	0	32813	
5070	0	32784	
5071	0	32768	
5072	0	32752	
5073	0	32773	
5074	0	32720	
5075	0	32788	
5076	0	32732	
5077	0	32736	
5078	0	32740	
5079	0	32736	
5080	0	32757	
5081	0	32852	
5082	0	32792	
5083	0	32772	
5084	0	32828	
5085	0	32804	
5086	0	32798	
5087	0	32852	
5088	0	32824	
5089	0	32820	
5090	0	32784	
5091	0	32765	
5092	0	32724	
5093	0	32708	
5094	0	32728	
5095	0	32736	
5096	0	32696	
5097	0	32673	
5098	0	32752	
5099	0	32752	
5100	0	32768	
5101	0	32844	
5102	0	32872	
5103	0	32868	
5104	0	32848	
5105	0	32796	
5106	0	32736	
5107	0	32648	
5108	0	32680	
5109	0	32828	
5110	0	32860	
5111	0	32840	
5112	0	32854	
5113	0	32772	
5114	0	32708	
5115	0	32656	
5116	0	32660	
5117	0	32661	
5118	0	32741	
5119	0	32776	
5120	0	32836	
5121	0	32784	
5122	0	32708	
5123	0	32772	
5124	0	32852	
5125	0	32736	
5126	0	32836	
5127	0	32856	
5128	0	32732	
5129	0	32660	
5130	0	32878	
5131	0	33092	
5132	0	32840	
5133	0	32736	
5134	0	32828	
5135	0	32764	
5136	0	32813	
5137	0	32776	
5138	0	32676	
5139	0	32740	
5140	0	32668	
5141	0	32670	
5142	0	32760	
5143	0	32836	
5144	0	32808	
5145	0	32734	
5146	0	32828	
5147	0	32812	
5148	0	32822	
5149	0	32736	
5150	0	32716	
5151	0	32824	
5152	0	32776	
5153	0	32972	
5154	0	32816	
5155	0	32780	
5156	0	32652	
5157	0	32652	
5158	0	32668	
5159	0	32714	
5160	0	32768	
5161	0	32848	
5162	0	32813	
5163	0	32888	
5164	0	32780	
5165	0	32788	
5166	0	32744	
5167	0	32808	
5168	0	32732	
5169	0	32736	
5170	0	32756	
5171	0	32800	
5172	0	32452	
5173	0	32472	
5174	0	32332	
5175	0	32408	
5176	0	32352	
5177	0	32614	
5178	0	32540	
5179	0	32540	
5180	0	32676	
5181	0	32880	
5182	0	32760	
5183	0	32381	
5184	0	32408	
5185	0	32516	
5186	0	32516	
5187	0	32760	
5188	0	32764	
5189	0	32808	
5190	0	32440	
5191	0	32568	
5192	0	32909	
5193	0	32980	
5194	0	33156	
5195	0	33316	
5196	0	33444	
5197	0	33244	
5198	0	33392	
5199	0	33508	
5200	0	33364	
5201	0	33112	
5202	0	32852	
5203	0	32110	
5204	0	32432	
5205	0	32920	
5206	0	33536	
5207	0	33704	
5208	0	33781	
5209	0	32708	
5210	0	31100	
5211	0	31408	
5212	0	31572	
5213	0	30784	
5214	0	31816	
5215	0	33056	
5216	0	33920	
5217	0	34276	
5218	0	33972	
5219	0	33488	
5220	0	33500	
5221	0	33409	
5222	0	33868	
5223	0	34488	
5224	0	35324	
5225	0	35608	
5226	0	35216	
5227	0	34428	
5228	0	33668	
5229	0	33212	
5230	0	32780	
5231	0	32284	
5232	0	31504	
5233	0	30328	
5234	0	30252	
5235	0	30412	
5236	0	30690	
5237	0	31008	
5238	0	31128	
5239	0	30980	
5240	0	31356	
5241	0	32232	
5242	0	32868	
5243	0	33168	
5244	0	32912	
5245	0	32640	
5246	0	32612	
5247	0	32980	
5248	0	33088	
5249	0	33032	
5250	0	33310	
5251	0	32916	
5252	0	32470	
5253	0	32108	
5254	0	32084	
5255	0	32544	
5256	0	31560	
5257	0	29945	
5258	0	30572	
5259	0	30944	
5260	0	29096	
5261	0	29200	
5262	0	28608	
5263	0	29566	
5264	0	31084	
5265	0	31800	
5266	0	34644	
5267	0	37544	
5268	0	39856	
5269	0	41120	
5270	0	41668	
5271	0	40852	
5272	0	39912	
5273	0	38912	
5274	0	38156	
5275	0	37068	
5276	0	34016	
5277	0	33006	
5278	0	29296	
5279	0	28010	
5280	0	29408	
5281	0	29540	
5282	0	30376	
5283	0	30464	
5284	0	27096	
5285	0	28345	
5286	0	30385	
5287	0	32104	
5288	0	33360	
5289	0	34552	
5290	0	35600	
5291	0	35604	
5292	0	35392	
5293	0	34888	
5294	0	34148	
5295	0	33225	
5296	0	32564	
5297	0	32344	
5298	0	31828	
5299	0	31252	
5300	0	31538	
5301	0	31200	
5302	0	30508	
5303	0	31088	
5304	0	31272	
5305	0	31052	
5306	0	31396	
5307	0	31608	
5308	0	31888	
5309	0	32200	
5310	0	32512	
5311	0	32440	
5312	0	32376	
5313	0	32366	
5314	0	32472	
5315	0	32612	
5316	0	32692	
5317	0	32648	
5318	0	32644	
5319	0	32652	
5320	0	32748	
5321	0	32908	
5322	0	32767	
5323	0	32864	
5324	0	32812	
5325	0	32912	
5326	0	32837	
5327	0	32901	
5328	0	32836	
5329	0	32872	
5330	0	32896	
5331	0	32997	
5332	0	32888	
5333	0	32812	
5334	0	32812	
5335	0	32928	
5336	0	32948	
5337	0	33028	
5338	0	32984	
5339	0	32848	
5340	0	32844	
5341	0	32836	
5342	0	32884	
5343	0	32848	
5344	0	33073	
5345	0	33140	
5346	0	33100	
5347	0	32924	
5348	0	32992	
5349	0	33104	
5350	0	32860	
5351	0	32704	
5352	0	32660	
5353	0	32648	
5354	0	32924	
5355	0	33092	
5356	0	33004	
5357	0	33032	
5358	0	32924	
5359	0	32816	
5360	0	32754	
5361	0	32752	
5362	0	32800	
5363	0	32796	
5364	0	32852	
5365	0	32988	
5366	0	32976	
5367	0	32884	
5368	0	32664	
5369	0	32548	
5370	0	32664	
5371	0	32796	
5372	0	32788	
5373	0	32648	
5374	0	32684	
5375	0	32758	
5376	0	32836	
5377	0	32512	
5378	0	32262	
5379	0	32452	
5380	0	32581	
5381	0	32788	
5382	0	32764	
5383	0	32624	
5384	0	32672	
5385	0	32709	
5386	0	32965	
5387	0	33084	
5388	0	32928	
5389	0	32900	
5390	0	32908	
5391	0	33053	
5392	0	33116	
5393	0	33060	
5394	0	33148	
5395	0	33208	
5396	0	33204	
5397	0	33208	
5398	0	33141	
5399	0	33176	
5400	0	33028	
5401	0	33172	
5402	0	33188	
5403	0	32904	
5404	0	32876	
5405	0	32760	
5406	0	32808	
5407	0	32772	
5408	0	32821	
5409	0	32764	
5410	0	32644	
5411	0	32484	
5412	0	32540	
5413	0	32388	
5414	0	32572	
5415	0	32932	
5416	0	33016	
5417	0	32857	
5418	0	32756	
5419	0	32688	
5420	0	32604	
5421	0	32538	
5422	0	32488	
5423	0	32568	
5424	0	32564	
5425	0	32620	
5426	0	32736	
5427	0	32808	
5428	0	32908	
5429	0	32816	
5430	0	32692	
5431	0	32662	
5432	0	32668	
5433	0	32592	
5434	0	32620	
5435	0	32652	
5436	0	32692	
5437	0	32632	
5438	0	32688	
5439	0	32844	
5440	0	32752	
5441	0	32820	
5442	0	32786	
5443	0	32668	
5444	0	32752	
5445	0	32816	
5446	0	32784	
5447	0	32776	
5448	0	32796	
5449	0	32704	
5450	0	32660	
5451	0	32768	
5452	0	32768	
5453	0	32830	
5454	0	32804	
5455	0	32700	
5456	0	32676	
5457	0	32712	
5458	0	32684	
5459	0	32608	
5460	0	32688	
5461	0	32796	
5462	0	32784	
5463	0	32726	
5464	0	32864	
5465	0	32940	
5466	0	32784	
5467	0	32736	
5468	0	32728	
5469	0	32756	
5470	0	32756	
5471	0	32744	
5472	0	32840	
5473	0	32960	
5474	0	32916	
5475	0	32824	
5476	0	32608	
5477	0	32516	
5478	0	32580	
5479	0	32676	
5480	0	32756	
5481	0	33144	
5482	0	33152	
5483	0	32876	
5484	0	32628	
5485	0	32640	
5486	0	32632	
5487	0	32698	
5488	0	32652	
5489	0	32694	
5490	0	32781	
5491	0	32968	
5492	0	33016	
5493	0	32868	
5494	0	32840	
5495	0	32768	
5496	0	32761	
5497	0	32636	
5498	0	32564	
5499	0	32540	
5500	0	32768	
5501	0	32772	
5502	0	32696	
5503	0	32716	
5504	0	32940	
5505	0	33088	
5506	0	32796	
5507	0	32332	
5508	0	32225	
5509	0	32416	
5510	0	32500	
5511	0	32700	
5512	0	32960	
5513	0	33112	
5514	0	33370	
5515	0	33344	
5516	0	33200	
5517	0	33012	
5518	0	32944	
5519	0	32960	
5520	0	32816	
5521	0	32908	
5522	0	32764	
5523	0	32632	
5524	0	32556	
5525	0	32644	
5526	0	32448	
5527	0	32540	
5528	0	32600	
5529	0	32564	
5530	0	32756	
5531	0	32832	
5532	0	32796	
5533	0	32669	
5534	0	32644	
5535	0	32724	
5536	0	32692	
5537	0	32828	
5538	0	32808	
5539	0	32724	
5540	0	32828	
5541	0	32836	
5542	0	32829	
5543	0	32860	
5544	0	32792	
5545	0	32756	
5546	0	32712	
5547	0	32774	
5548	0	32804	
5549	0	32764	
5550	0	32813	
5551	0	32828	
5552	0	32776	
5553	0	32748	
5554	0	32692	
5555	0	32692	
5556	0	32728	
5557	0	32704	
5558	0	32680	
5559	0	32696	
5560	0	32732	
5561	0	32908	
5562	0	33000	
5563	0	32912	
5564	0	32736	
5565	0	32685	
5566	0	32700	
5567	0	32714	
5568	0	32650	
5569	0	32809	
5570	0	32888	
5571	0	33060	
5572	0	32952	
5573	0	32852	
5574	0	32800	
5575	0	32693	
5576	0	32720	
5577	0	32556	
5578	0	32692	
5579	0	32680	
5580	0	32648	
5581	0	32836	
5582	0	32984	
5583	0	32786	
5584	0	32736	
5585	0	32808	
5586	0	32832	
5587	0	32764	
5588	0	32757	
5589	0	32816	
5590	0	32837	
5591	0	32808	
5592	0	32764	
5593	0	32660	
5594	0	32653	
5595	0	32548	
5596	0	32628	
5597	0	32724	
5598	0	32836	
5599	0	32752	
5600	0	33004	
5601	0	32920	
5602	0	32806	
5603	0	32792	
5604	0	32924	
5605	0	32881	
5606	0	32752	
5607	0	32760	
5608	0	32748	
5609	0	32932	
5610	0	32968	
5611	0	32932	
5612	0	32852	
5613	0	32751	
5614	0	32672	
5615	0	32653	
5616	0	32724	
5617	0	32629	
5618	0	32741	
5619	0	32800	
5620	0	32736	
5621	0	32832	
5622	0	32792	
5623	0	32828	
5624	0	32809	
5625	0	32772	
5626	0	32812	
5627	0	32765	
5628	0	32768	
5629	0	32754	
5630	0	32713	
5631	0	32688	
5632	0	32584	
5633	0	32520	
5634	0	32596	
5635	0	32617	
5636	0	32822	
5637	0	32852	
5638	0	32872	
5639	0	32896	
5640	0	32936	
5641	0	32996	
5642	0	32924	
5643	0	33028	
5644	0	32928	
5645	0	33060	
5646	0	33100	
5647	0	33024	
5648	0	33068	
5649	0	33064	
5650	0	33006	
5651	0	32916	
5652	0	32836	
5653	0	32624	
5654	0	32680	
5655	0	32460	
5656	0	32508	
5657	0	32604	
5658	0	32672	
5659	0	32729	
5660	0	32757	
5661	0	32824	
5662	0	32861	
5663	0	32785	
5664	0	32782	
5665	0	32788	
5666	0	32756	
5667	0	32740	
5668	0	32776	
5669	0	32740	
5670	0	32580	
5671	0	32616	
5672	0	32568	
5673	0	32620	
5674	0	32556	
5675	0	32544	
5676	0	32613	
5677	0	32621	
5678	0	32672	
5679	0	32652	
5680	0	32684	
5681	0	32788	
5682	0	32760	
5683	0	32740	
5684	0	32743	
5685	0	32608	
5686	0	32616	
5687	0	32816	
5688	0	32792	
5689	0	32752	
5690	0	32700	
5691	0	32708	
5692	0	32776	
5693	0	32836	
5694	0	32772	
5695	0	32704	
5696	0	32788	
5697	0	32772	
5698	0	32704	
5699	0	32680	
5700	0	32660	
5701	0	32760	
5702	0	32768	
5703	0	32900	
5704	0	32808	
5705	0	32928	
5706	0	32868	
5707	0	32784	
5708	0	32744	
5709	0	32744	
5710	0	32752	
5711	0	32672	
5712	0	32568	
5713	0	32516	
5714	0	32709	
5715	0	32684	
5716	0	32764	
5717	0	32796	
5718	0	32717	
5719	0	32740	
5720	0	32880	
5721	0	32768	
5722	0	32701	
5723	0	32796	
5724	0	32916	
5725	0	32788	
5726	0	32916	
5727	0	33030	
5728	0	32816	
5729	0	32676	
5730	0	32749	
5731	0	32832	
5732	0	32884	
5733	0	32820	
5734	0	32848	
5735	0	32824	
5736	0	32773	
5737	0	32528	
5738	0	32668	
5739	0	32696	
5740	0	32684	
5741	0	32792	
5742	0	32900	
5743	0	32800	
5744	0	32884	
5745	0	32820	
5746	0	32776	
5747	0	32820	
5748	0	32900	
5749	0	32996	
5750	0	33112	
5751	0	33100	
5752	0	32878	
5753	0	32708	
5754	0	32704	
5755	0	32708	
5756	0	32744	
5757	0	32712	
5758	0	32748	
5759	0	32705	
5760	0	32720	
5761	0	32648	
5762	0	32728	
5763	0	32800	
5764	0	32772	
5765	0	32712	
5766	0	32976	
5767	0	33272	
5768	0	32940	
5769	0	32820	
5770	0	32724	
5771	0	32822	
5772	0	32824	
5773	0	32825	
5774	0	32680	
5775	0	32652	
5776	0	32686	
5777	0	32684	
5778	0	32608	
5779	0	32669	
5780	0	32676	
5781	0	32844	
5782	0	32900	
5783	0	32900	
5784	0	32852	
5785	0	32908	
5786	0	32868	
5787	0	32800	
5788	0	32768	
5789	0	32780	
5790	0	32828	
5791	0	32677	
5792	0	32807	
5793	0	32785	
5794	0	32760	
5795	0	32672	
5796	0	32712	
5797	0	32844	
5798	0	32798	
5799	0	32656	
5800	0	32776	
5801	0	32828	
5802	0	32845	
5803	0	32780	
5804	0	32848	
5805	0	32869	
5806	0	32868	
5807	0	32918	
5808	0	32909	
5809	0	32916	
5810	0	32948	
5811	0	32920	
5812	0	32812	
5813	0	32544	
5814	0	32600	
5815	0	32756	
5816	0	32812	
5817	0	32796	
5818	0	32684	
5819	0	32648	
5820	0	32744	
5821	0	32848	
5822	0	32776	
5823	0	32644	
5824	0	32684	
5825	0	32776	
5826	0	33092	
5827	0	33000	
5828	0	32844	
5829	0	32757	
5830	0	32744	
5831	0	32764	
5832	0	32845	
5833	0	32804	
5834	0	32744	
5835	0	32652	
5836	0	32708	
5837	0	32680	
5838	0	32588	
5839	0	32689	
5840	0	32696	
5841	0	32862	
5842	0	32880	
5843	0	32820	
5844	0	32796	
5845	0	32752	
5846	0	32736	
5847	0	32748	
5848	0	32832	
5849	0	32756	
5850	0	32768	
5851	0	32844	
5852	0	32828	
5853	0	32772	
5854	0	32764	
5855	0	32744	
5856	0	32705	
5857	0	32684	
5858	0	32712	
5859	0	32748	
5860	0	32832	
5861	0	32790	
5862	0	32800	
5863	0	32852	
5864	0	32927	
5865	0	32680	
5866	0	32684	
5867	0	32760	
5868	0	32797	
5869	0	32692	
5870	0	32694	
5871	0	32888	
5872	0	32936	
5873	0	32896	
5874	0	32776	
5875	0	32724	
5876	0	32788	
5877	0	32608	
5878	0	32668	
5879	0	32720	
5880	0	32868	
5881	0	32778	
5882	0	32705	
5883	0	32692	
5884	0	32772	
5885	0	32865	
5886	0	32702	
5887	0	32664	
5888	0	32856	
5889	0	32842	
5890	0	32796	
5891	0	32745	
5892	0	32929	
5893	0	32908	
5894	0	32800	
5895	0	32712	
5896	0	32705	
5897	0	32697	
5898	0	32637	
5899	0	32684	
5900	0	32724	
5901	0	32772	
5902	0	32840	
5903	0	32784	
5904	0	32701	
5905	0	32749	
5906	0	32852	
5907	0	32920	
5908	0	32912	
5909	0	32888	
5910	0	32824	
5911	0	32840	
5912	0	32804	
5913	0	32729	
5914	0	32724	
5915	0	32820	
5916	0	32796	
5917	0	32797	
5918	0	32687	
5919	0	32584	
5920	0	32728	
5921	0	32880	
5922	0	32988	
5923	0	32860	
5924	0	32816	
5925	0	32804	
5926	0	32744	
5927	0	32789	
5928	0	32836	
5929	0	32840	
5930	0	32792	
5931	0	32732	
5932	0	32596	
5933	0	32620	
5934	0	32788	
5935	0	32788	
5936	0	32872	
5937	0	32768	
5938	0	32784	
5939	0	32692	
5940	0	32740	
5941	0	32756	
5942	0	32892	
5943	0	32820	
5944	0	32740	
5945	0	32788	
5946	0	32684	
5947	0	32728	
5948	0	32708	
5949	0	32828	
5950	0	32960	
5951	0	32888	
5952	0	32896	
5953	0	32756	
5954	0	32669	
5955	0	32728	
5956	0	32740	
5957	0	32808	
5958	0	32748	
5959	0	32720	
5960	0	32760	
5961	0	32664	
5962	0	32672	
5963	0	32672	
5964	0	32878	
5965	0	32788	
5966	0	32784	
5967	0	32984	
5968	0	33028	
5969	0	33036	
5970	0	32900	
5971	0	32820	
5972	0	32744	
5973	0	32708	
5974	0	32552	
5975	0	32540	
5976	0	32609	
5977	0	32676	
5978	0	32676	
5979	0	32700	
5980	0	32960	
5981	0	33024	
5982	0	32980	
5983	0	32880	
5984	0	32877	
5985	0	32728	
5986	0	32724	
5987	0	32784	
5988	0	32740	
5989	0	32724	
5990	0	32664	
5991	0	32548	
5992	0	32740	
5993	0	32870	
5994	0	32800	
5995	0	32798	
5996	0	32756	
5997	0	32692	
5998	0	32724	
5999	0	32764	
6000	0	32824	
6001	0	32824	
6002	0	32876	
6003	0	32844	
6004	0	32728	
6005	0	32704	
6006	0	32660	
6007	0	32776	
6008	0	32768	
6009	0	32836	
6010	0	32892	
6011	0	32872	
6012	0	32824	
6013	0	32816	
6014	0	32732	
6015	0	32712	
6016	0	32740	
6017	0	32688	
6018	0	32621	
6019	0	32656	
6020	0	32725	
6021	0	32888	
6022	0	32929	
6023	0	32936	
6024	0	32960	
6025	0	32886	
6026	0	32864	
6027	0	32832	
6028	0	32764	
6029	0	32544	
6030	0	32532	
6031	0	32832	
6032	0	32888	
6033	0	32660	
6034	0	32696	
6035	0	32684	
6036	0	32712	
6037	0	32760	
6038	0	32708	
6039	0	32752	
6040	0	32732	
6041	0	32848	
6042	0	32824	
6043	0	32828	
6044	0	32920	
6045	0	32908	
6046	0	32865	
6047	0	32788	
6048	0	32910	
6049	0	32840	
6050	0	32812	
6051	0	32812	
6052	0	32856	
6053	0	32800	
6054	0	32740	
6055	0	32744	
6056	0	32720	
6057	0	32696	
6058	0	32720	
6059	0	32756	
6060	0	32796	
6061	0	32832	
6062	0	32820	
6063	0	32780	
6064	0	32864	
6065	0	32732	
6066	0	32660	
6067	0	32760	
6068	0	32737	
6069	0	32832	
6070	0	32976	
6071	0	32916	
6072	0	32740	
6073	0	32790	
6074	0	32856	
6075	0	32773	
6076	0	32768	
6077	0	32640	
6078	0	32676	
6079	0	32572	
6080	0	32692	
6081	0	32880	
6082	0	32908	
6083	0	32808	
6084	0	32808	
6085	0	32832	
6086	0	32736	
6087	0	32728	
6088	0	32808	
6089	0	32873	
6090	0	32820	
6091	0	32838	
6092	0	32732	
6093	0	32844	
6094	0	32944	
6095	0	32832	
6096	0	32708	
6097	0	32617	
6098	0	32628	
6099	0	32632	
6100	0	32724	
6101	0	32796	
6102	0	32844	
6103	0	32988	
6104	0	32933	
6105	0	32928	
6106	0	32796	
6107	0	32772	
6108	0	32696	
6109	0	32597	
6110	0	32596	
6111	0	32800	
6112	0	32936	
6113	0	32800	
6114	0	32793	
6115	0	32892	
6116	0	32706	
6117	0	32716	
6118	0	32720	
6119	0	32664	
6120	0	32792	
6121	0	32756	
6122	0	32855	
6123	0	32764	
6124	0	32832	
6125	0	33004	
6126	0	32876	
6127	0	32760	
6128	0	32704	
6129	0	32656	
6130	0	32784	
6131	0	32849	
6132	0	32832	
6133	0	32698	
6134	0	32644	
6135	0	32660	
6136	0	32692	
6137	0	32880	
6138	0	32832	
6139	0	32760	
6140	0	32800	
6141	0	32812	
6142	0	32928	
6143	0	32836	
6144	0	32860	
6145	0	32904	
6146	0	32904	
6147	0	32816	
6148	0	32736	
6149	0	32664	
6150	0	32628	
6151	0	32673	
6152	0	32737	
6153	0	32776	
6154	0	32812	
6155	0	32780	
6156	0	32812	
6157	0	32792	
6158	0	32748	
6159	0	32704	
6160	0	32772	
6161	0	32776	
6162	0	32812	
6163	0	32788	
6164	0	32756	
6165	0	32784	
6166	0	32768	
6167	0	32836	
6168	0	32824	
6169	0	32846	
6170	0	32864	
6171	0	32813	
6172	0	32808	
6173	0	32800	
6174	0	32712	
6175	0	32660	
6176	0	32720	
6177	0	32696	
6178	0	32788	
6179	0	32846	
6180	0	32860	
6181	0	32912	
6182	0	32918	
6183	0	32800	
6184	0	32760	
6185	0	32756	
6186	0	32744	
6187	0	32612	
6188	0	32528	
6189	0	32665	
6190	0	32708	
6191	0	32848	
6192	0	32852	
6193	0	32824	
6194	0	32828	
6195	0	32736	
6196	0	32693	
6197	0	32792	
6198	0	32808	
6199	0	32801	
6200	0	32712	
6201	0	32720	
6202	0	32896	
6203	0	32864	
6204	0	32848	
6205	0	32792	
6206	0	32740	
6207	0	32670	
6208	0	32676	
6209	0	32732	
6210	0	32800	
6211	0	32996	
6212	0	33036	
6213	0	32892	
6214	0	32772	
6215	0	32736	
6216	0	32632	
6217	0	32692	
6218	0	32628	
6219	0	32701	
6220	0	32700	
6221	0	32780	
6222	0	32916	
6223	0	32948	
6224	0	32780	
6225	0	32704	
6226	0	32720	
6227	0	32700	
6228	0	32876	
6229	0	32824	
6230	0	32832	
6231	0	32862	
6232	0	32812	
6233	0	32776	
6234	0	32672	
6235	0	32736	
6236	0	32796	
6237	0	32774	
6238	0	32712	
6239	0	32772	
6240	0	32696	
6241	0	32612	
6242	0	32692	
6243	0	32808	
6244	0	32861	
6245	0	32708	
6246	0	32832	
6247	0	32804	
6248	0	32724	
6249	0	32860	
6250	0	32920	
6251	0	32948	
6252	0	32792	
6253	0	32724	
6254	0	32744	
6255	0	32748	
6256	0	32756	
6257	0	32740	
6258	0	32790	
6259	0	32716	
6260	0	32824	
6261	0	32824	
6262	0	32828	
6263	0	32752	
6264	0	32788	
6265	0	32788	
6266	0	32704	
6267	0	32660	
6268	0	32965	
6269	0	33082	
6270	0	32977	
6271	0	32860	
6272	0	32816	
6273	0	32776	
6274	0	32713	
6275	0	32664	
6276	0	32392	
6277	0	32592	
6278	0	32732	
6279	0	32744	
6280	0	32832	
6281	0	32828	
6282	0	32896	
6283	0	32800	
6284	0	32876	
6285	0	32896	
6286	0	32828	
6287	0	32868	
6288	0	32820	
6289	0	32797	
6290	0	32770	
6291	0	32684	
6292	0	32829	
6293	0	32769	
6294	0	32720	
6295	0	32704	
6296	0	32664	
6297	0	32692	
6298	0	32692	
6299	0	32708	
6300	0	32772	
6301	0	32884	
6302	0	32884	
6303	0	32808	
6304	0	32828	
6305	0	32833	
6306	0	32780	
6307	0	32708	
6308	0	32988	
6309	0	32996	
6310	0	32942	
6311	0	32849	
6312	0	32864	
6313	0	32820	
6314	0	32708	
6315	0	32656	
6316	0	32576	
6317	0	32620	
6318	0	32464	
6319	0	32532	
6320	0	32576	
6321	0	32720	
6322	0	32796	
6323	0	32660	
6324	0	32772	
6325	0	32876	
6326	0	32784	
6327	0	32749	
6328	0	32776	
6329	0	32800	
6330	0	32852	
6331	0	32897	
6332	0	32804	
6333	0	32750	
6334	0	32660	
6335	0	32748	
6336	0	32676	
6337	0	32756	
6338	0	32704	
6339	0	32676	
6340	0	32732	
6341	0	32748	
6342	0	32816	
6343	0	32904	
6344	0	32944	
6345	0	32853	
6346	0	32828	
6347	0	32816	
6348	0	32820	
6349	0	32836	
6350	0	32828	
6351	0	32776	
6352	0	32828	
6353	0	32764	
6354	0	32680	
6355	0	32637	
6356	0	32596	
6357	0	32672	
6358	0	32656	
6359	0	32702	
6360	0	32820	
6361	0	32828	
6362	0	32836	
6363	0	32792	
6364	0	32752	
6365	0	32728	
6366	0	32662	
6367	0	32836	
6368	0	32932	
6369	0	32804	
6370	0	32864	
6371	0	32740	
6372	0	32760	
6373	0	33068	
6374	0	33056	
6375	0	32854	
6376	0	32799	
6377	0	32724	
6378	0	32744	
6379	0	32694	
6380	0	32676	
6381	0	32776	
6382	0	32812	
6383	0	32784	
6384	0	32800	
6385	0	32828	
6386	0	32800	
6387	0	32776	
6388	0	32876	
6389	0	32840	
6390	0	32856	
6391	0	32804	
6392	0	32884	
6393	0	32789	
6394	0	32760	
6395	0	32704	
6396	0	32768	
6397	0	32733	
6398	0	32685	
6399	0	32768	
6400	0	32860	
6401	0	32801	
6402	0	32824	
6403	0	32820	
6404	0	32816	
6405	0	32824	
6406	0	32876	
6407	0	32696	
6408	0	32632	
6409	0	32612	
6410	0	32560	
6411	0	32748	
6412	0	32988	
6413	0	33072	
6414	0	32856	
6415	0	32724	
6416	0	32688	
6417	0	32764	
6418	0	32592	
6419	0	32644	
6420	0	32636	
6421	0	32748	
6422	0	32833	
6423	0	32793	
6424	0	32844	
6425	0	32956	
6426	0	32912	
6427	0	32868	
6428	0	32876	
6429	0	32764	
6430	0	32760	
6431	0	32728	
6432	0	32724	
6433	0	32828	
6434	0	32712	
6435	0	32676	
6436	0	32768	
6437	0	32732	
6438	0	32720	
6439	0	32884	
6440	0	32880	
6441	0	32784	
6442	0	32812	
6443	0	32824	
6444	0	32804	
6445	0	32804	
6446	0	32761	
6447	0	32776	
6448	0	32868	
6449	0	32832	
6450	0	32801	
6451	0	32848	
6452	0	32865	
6453	0	32796	
6454	0	32684	
6455	0	32708	
6456	0	32584	
6457	0	32596	
6458	0	32804	
6459	0	32844	
6460	0	32832	
6461	0	32752	
6462	0	32756	
6463	0	32760	
6464	0	32876	
6465	0	32972	
6466	0	32877	
6467	0	32764	
6468	0	32808	
6469	0	32852	
6470	0	32749	
6471	0	32768	
6472	0	32804	
6473	0	32868	
6474	0	32732	
6475	0	32800	
6476	0	32744	
6477	0	32680	
6478	0	32644	
6479	0	32574	
6480	0	32608	
6481	0	32744	
6482	0	32832	
6483	0	32752	
6484	0	32952	
6485	0	33104	
6486	0	32928	
6487	0	32820	
6488	0	32680	
6489	0	32780	
6490	0	32852	
6491	0	32812	
6492	0	32796	
6493	0	32804	
6494	0	32676	
6495	0	32661	
6496	0	32752	
6497	0	32592	
6498	0	32568	
6499	0	32832	
6500	0	32836	
6501	0	32852	
6502	0	32894	
6503	0	32878	
6504	0	32824	
6505	0	32780	
6506	0	32880	
6507	0	32896	
6508	0	32760	
6509	0	32752	
6510	0	32748	
6511	0	32844	
6512	0	32764	
6513	0	32732	
6514	0	32644	
6515	0	32693	
6516	0	32961	
6517	0	32924	
6518	0	32820	
6519	0	32725	
6520	0	32684	
6521	0	32604	
6522	0	32608	
6523	0	32556	
6524	0	32772	
6525	0	32836	
6526	0	33056	
6527	0	32940	
6528	0	32884	
6529	0	32844	
6530	0	32800	
6531	0	32796	
6532	0	32868	
6533	0	32824	
6534	0	32812	
6535	0	32744	
6536	0	32748	
6537	0	32764	
6538	0	32676	
6539	0	32604	
6540	0	32520	
6541	0	32572	
6542	0	32860	
6543	0	32884	
6544	0	32868	
6545	0	32756	
6546	0	32772	
6547	0	32772	
6548	0	32840	
6549	0	32780	
6550	0	32736	
6551	0	32692	
6552	0	32908	
6553	0	32910	
6554	0	32852	
6555	0	32686	
6556	0	32784	
6557	0	32928	
6558	0	32916	
6559	0	32788	
6560	0	32724	
6561	0	32720	
6562	0	32804	
6563	0	32792	
6564	0	32836	
6565	0	32822	
6566	0	32788	
6567	0	32828	
6568	0	32764	
6569	0	32772	
6570	0	32956	
6571	0	32884	
6572	0	32936	
6573	0	32776	
6574	0	32676	
6575	0	32588	
6576	0	32620	
6577	0	32652	
6578	0	32645	
6579	0	32708	
6580	0	32684	
6581	0	32740	
6582	0	32748	
6583	0	32797	
6584	0	32848	
6585	0	32772	
6586	0	32880	
6587	0	32828	
6588	0	32900	
6589	0	32852	
6590	0	32856	
6591	0	32829	
6592	0	32832	
6593	0	32704	
6594	0	32512	
6595	0	32688	
6596	0	32744	
6597	0	32752	
6598	0	32670	
6599	0	32772	
6600	0	32752	
6601	0	32748	
6602	0	32784	
6603	0	32900	
6604	0	32838	
6605	0	32840	
6606	0	32832	
6607	0	32813	
6608	0	32756	
6609	0	32776	
6610	0	32840	
6611	0	32860	
6612	0	32908	
6613	0	32868	
6614	0	32700	
6615	0	32540	
6616	0	32384	
6617	0	32308	
6618	0	32628	
6619	0	33092	
6620	0	32912	
6621	0	32796	
6622	0	32768	
6623	0	32772	
6624	0	32760	
6625	0	32980	
6626	0	32944	
6627	0	32876	
6628	0	32845	
6629	0	32836	
6630	0	32800	
6631	0	32756	
6632	0	32769	
6633	0	32788	
6634	0	32668	
6635	0	32676	
6636	0	32704	
6637	0	32764	
6638	0	32780	
6639	0	32688	
6640	0	32720	
6641	0	32824	
6642	0	32824	
6643	0	32796	
6644	0	32820	
6645	0	32776	
6646	0	32780	
6647	0	32877	
6648	0	32889	
6649	0	32828	
6650	0	32856	
6651	0	32774	
6652	0	32776	
6653	0	32772	
6654	0	32780	
6655	0	32620	
6656	0	32784	
6657	0	32840	
6658	0	32756	
6659	0	32772	
6660	0	32752	
6661	0	32774	
6662	0	32788	
6663	0	32828	
6664	0	32808	
6665	0	32808	
6666	0	32812	
6667	0	32842	
6668	0	32792	
6669	0	32772	
6670	0	32832	
6671	0	32778	
6672	0	32772	
6673	0	32792	
6674	0	32788	
6675	0	32756	
6676	0	32764	
6677	0	32744	
6678	0	32704	
6679	0	32621	
6680	0	32620	
6681	0	32732	
6682	0	32820	
6683	0	32904	
6684	0	32896	
6685	0	32737	
6686	0	32830	
6687	0	32836	
6688	0	32752	
6689	0	32740	
6690	0	32868	
6691	0	32732	
6692	0	32980	
6693	0	32972	
6694	0	32828	
6695	0	32836	
6696	0	32692	
6697	0	32496	
6698	0	32540	
6699	0	32668	
6700	0	32696	
6701	0	32808	
6702	0	32808	
6703	0	32876	
6704	0	32844	
6705	0	32870	
6706	0	32860	
6707	0	32864	
6708	0	32900	
6709	0	32836	
6710	0	32648	
6711	0	32676	
6712	0	32801	
6713	0	32726	
6714	0	32772	
6715	0	32832	
6716	0	32772	
6717	0	32760	
6718	0	32804	
6719	0	32688	
6720	0	32636	
6721	0	32740	
6722	0	32768	
6723	0	32728	
6724	0	32760	
6725	0	32820	
6726	0	32836	
6727	0	32832	
6728	0	32886	
6729	0	32820	
6730	0	32788	
6731	0	32688	
6732	0	32834	
6733	0	32832	
6734	0	32852	
6735	0	32832	
6736	0	32760	
6737	0	32740	
6738	0	32645	
6739	0	32713	
6740	0	32673	
6741	0	32660	
6742	0	32777	
6743	0	32864	
6744	0	32860	
6745	0	32824	
6746	0	32776	
6747	0	32836	
6748	0	32752	
6749	0	32816	
6750	0	32776	
6751	0	32788	
6752	0	32788	
6753	0	32820	
6754	0	32756	
6755	0	32784	
6756	0	32680	
6757	0	32622	
6758	0	32581	
6759	0	32656	
6760	0	32644	
6761	0	32860	
6762	0	33020	
6763	0	32868	
6764	0	32844	
6765	0	32800	
6766	0	32868	
6767	0	32692	
6768	0	32752	
6769	0	32768	
6770	0	32780	
6771	0	32756	
6772	0	32816	
6773	0	32884	
6774	0	32736	
6775	0	32700	
6776	0	32633	
6777	0	32700	
6778	0	32648	
6779	0	32648	
6780	0	32748	
6781	0	32740	
6782	0	32942	
6783	0	33016	
6784	0	33056	
6785	0	32934	
6786	0	32816	
6787	0	32820	
6788	0	32840	
6789	0	32917	
6790	0	32724	
6791	0	32476	
6792	0	32581	
6793	0	32792	
6794	0	32672	
6795	0	32692	
6796	0	32568	
6797	0	32812	
6798	0	32828	
6799	0	32800	
6800	0	32832	
6801	0	32844	
6802	0	32780	
6803	0	32700	
6804	0	32740	
6805	0	32760	
6806	0	32836	
6807	0	32869	
6808	0	32814	
6809	0	32820	
6810	0	32852	
6811	0	32761	
6812	0	32804	
6813	0	32788	
6814	0	32772	
6815	0	32836	
6816	0	32904	
6817	0	32792	
6818	0	32680	
6819	0	32612	
6820	0	32712	
6821	0	32652	
6822	0	32846	
6823	0	32896	
6824	0	32862	
6825	0	32864	
6826	0	32848	
6827	0	32724	
6828	0	32764	
6829	0	32804	
6830	0	32760	
6831	0	32772	
6832	0	32784	
6833	0	32796	
6834	0	32696	
6835	0	32774	
6836	0	32780	
6837	0	32748	
6838	0	32724	
6839	0	32732	
6840	0	32804	
6841	0	32832	
6842	0	32780	
6843	0	32806	
6844	0	32872	
6845	0	32800	
6846	0	32760	
6847	0	32688	
6848	0	32756	
6849	0	32916	
6850	0	32900	
6851	0	32800	
6852	0	32840	
6853	0	32976	
6854	0	32856	
6855	0	32660	
6856	0	32613	
6857	0	32676	
6858	0	32820	
6859	0	32628	
6860	0	32668	
6861	0	32676	
6862	0	32736	
6863	0	32744	
6864	0	32844	
6865	0	32956	
6866	0	32860	
6867	0	32896	
6868	0	32856	
6869	0	32808	
6870	0	32766	
6871	0	32816	
6872	0	32808	
6873	0	32813	
6874	0	32853	
6875	0	32804	
6876	0	32692	
6877	0	32788	
6878	0	32737	
6879	0	32692	
6880	0	32660	
6881	0	32713	
6882	0	32804	
6883	0	32772	
6884	0	32748	
6885	0	32796	
6886	0	32684	
6887	0	32696	
6888	0	32745	
6889	0	32768	
6890	0	32800	
6891	0	32800	
6892	0	32888	
6893	0	32860	
6894	0	32856	
6895	0	32805	
6896	0	32876	
6897	0	32814	
6898	0	32860	
6899	0	32780	
6900	0	32760	
6901	0	32808	
6902	0	32837	
6903	0	32848	
6904	0	32844	
6905	0	32909	
6906	0	32784	
6907	0	32660	
6908	0	32655	
6909	0	32652	
6910	0	32780	
6911	0	33045	
6912	0	32952	
6913	0	32756	
6914	0	32728	
6915	0	32668	
6916	0	32649	
6917	0	32768	
6918	0	32740	
6919	0	32680	
6920	0	32712	
6921	0	32640	
6922	0	32740	
6923	0	32752	
6924	0	32800	
6925	0	32892	
6926	0	32884	
6927	0	32836	
6928	0	32736	
6929	0	32748	
6930	0	32760	
6931	0	32636	
6932	0	32562	
6933	0	32632	
6934	0	32996	
6935	0	32984	
6936	0	32812	
6937	0	32656	
6938	0	32620	
6939	0	32624	
6940	0	32628	
6941	0	33068	
6942	0	33092	
6943	0	32948	
6944	0	32652	
6945	0	32709	
6946	0	32765	
6947	0	32700	
6948	0	32712	
6949	0	32828	
6950	0	32920	
6951	0	32796	
6952	0	32856	
6953	0	32776	
6954	0	32745	
6955	0	32732	
6956	0	32704	
6957	0	32756	
6958	0	32768	
6959	0	32704	
6960	0	32672	
6961	0	32680	
6962	0	32768	
6963	0	32868	
6964	0	33053	
6965	0	32912	
6966	0	32820	
6967	0	32776	
6968	0	32856	
6969	0	32893	
6970	0	32836	
6971	0	32732	
6972	0	32772	
6973	0	32780	
6974	0	32764	
6975	0	32712	
6976	0	32788	
6977	0	32840	
6978	0	32756	
6979	0	32680	
6980	0	32668	
6981	0	32440	
6982	0	32373	
6983	0	32636	
6984	0	32804	
6985	0	32960	
6986	0	32968	
6987	0	32828	
6988	0	32814	
6989	0	32814	
6990	0	32901	
6991	0	32896	
6992	0	32960	
6993	0	32868	
6994	0	32837	
6995	0	32836	
6996	0	32760	
6997	0	32784	
6998	0	32776	
6999	0	32620	
7000	0	32628	
7001	0	32669	
7002	0	32696	
7003	0	32816	
7004	0	32752	
7005	0	32830	
7006	0	32908	
7007	0	32814	
7008	0	32840	
7009	0	32852	
7010	0	32876	
7011	0	32872	
7012	0	32780	
7013	0	32756	
7014	0	32716	
7015	0	32653	
7016	0	32756	
7017	0	32748	
7018	0	32704	
7019	0	32740	
7020	0	32752	
7021	0	32869	
7022	0	32764	
7023	0	32812	
7024	0	32772	
7025	0	32764	
7026	0	32840	
7027	0	32913	
7028	0	32852	
7029	0	32820	
7030	0	32820	
7031	0	32748	
7032	0	32768	
7033	0	32792	
7034	0	32740	
7035	0	32728	
7036	0	32688	
7037	0	32644	
7038	0	32716	
7039	0	32656	
7040	0	32660	
7041	0	32734	
7042	0	32884	
7043	0	32944	
7044	0	32834	
7045	0	32894	
7046	0	32901	
7047	0	32868	
7048	0	32760	
7049	0	32816	
7050	0	32724	
7051	0	32852	
7052	0	32829	
7053	0	32912	
7054	0	32736	
7055	0	32692	
7056	0	32692	
7057	0	32692	
7058	0	32736	
7059	0	32725	
7060	0	32806	
7061	0	32732	
7062	0	32768	
7063	0	32871	
7064	0	32780	
7065	0	32732	
7066	0	32744	
7067	0	32816	
7068	0	32800	
7069	0	32712	
7070	0	32869	
7071	0	32948	
7072	0	32864	
7073	0	32648	
7074	0	32728	
7075	0	32800	
7076	0	32828	
7077	0	32860	
7078	0	32696	
7079	0	32644	
7080	0	32668	
7081	0	32744	
7082	0	32800	
7083	0	32716	
7084	0	32668	
7085	0	32768	
7086	0	32744	
7087	0	32728	
7088	0	32756	
7089	0	32932	
7090	0	32894	
7091	0	32796	
7092	0	32828	
7093	0	32788	
7094	0	33037	
7095	0	32760	
7096	0	32664	
7097	0	32792	
7098	0	32816	
7099	0	32740	
7100	0	32736	
7101	0	32772	
7102	0	32748	
7103	0	32776	
7104	0	32832	
7105	0	32888	
7106	0	32892	
7107	0	32844	
7108	0	32904	
7109	0	32824	
7110	0	32792	
7111	0	32748	
7112	0	32756	
7113	0	32764	
7114	0	32732	
7115	0	32536	
7116	0	32636	
7117	0	32717	
7118	0	32741	
7119	0	32708	
7120	0	32640	
7121	0	32765	
7122	0	32816	
7123	0	32904	
7124	0	32792	
7125	0	32730	
7126	0	32808	
7127	0	32677	
7128	0	32832	
7129	0	32956	
7130	0	32912	
7131	0	32774	
7132	0	32802	
7133	0	32808	
7134	0	32765	
7135	0	32624	
7136	0	32704	
7137	0	32788	
7138	0	32704	
7139	0	32684	
7140	0	32694	
7141	0	32732	
7142	0	32752	
7143	0	32784	
7144	0	32788	
7145	0	32968	
7146	0	33044	
7147	0	32912	
7148	0	32872	
7149	0	32752	
7150	0	32825	
7151	0	32816	
7152	0	32681	
7153	0	32810	
7154	0	33045	
7155	0	32816	
7156	0	32520	
7157	0	32400	
7158	0	32528	
7159	0	32708	
7160	0	32796	
7161	0	32672	
7162	0	32672	
7163	0	32724	
7164	0	32868	
7165	0	32936	
7166	0	32972	
7167	0	32820	
7168	0	32852	
7169	0	32865	
7170	0	32832	
7171	0	32940	
7172	0	32932	
7173	0	32796	
7174	0	32764	
7175	0	32704	
7176	0	32740	
7177	0	32764	
7178	0	32736	
7179	0	32708	
7180	0	32780	
7181	0	32688	
7182	0	32664	
7183	0	32737	
7184	0	32836	
7185	0	32844	
7186	0	32836	
7187	0	32836	
7188	0	32865	
7189	0	32752	
7190	0	32814	
7191	0	32832	
7192	0	32844	
7193	0	32760	
7194	0	32672	
7195	0	32684	
7196	0	32684	
7197	0	32668	
7198	0	32660	
7199	0	32724	
7200	0	32704	
7201	0	32720	
7202	0	32765	
7203	0	32944	
7204	0	32857	
7205	0	32889	
7206	0	32868	
7207	0	32948	
7208	0	32794	
7209	0	32808	
7210	0	32844	
7211	0	32804	
7212	0	32677	
7213	0	32700	
7214	0	32804	
7215	0	32860	
7216	0	32760	
7217	0	32812	
7218	0	32760	
7219	0	32669	
7220	0	32676	
7221	0	32628	
7222	0	32609	
7223	0	32712	
7224	0	32988	
7225	0	32932	
7226	0	32868	
7227	0	32817	
7228	0	32753	
7229	0	32656	
7230	0	32756	
7231	0	32952	
7232	0	32932	
7233	0	32876	
7234	0	32856	
7235	0	32677	
7236	0	32712	
7237	0	32772	
7238	0	32740	
7239	0	32740	
7240	0	32708	
7241	0	32729	
7242	0	32740	
7243	0	32708	
7244	0	32728	
7245	0	32852	
7246	0	32854	
7247	0	32808	
7248	0	32810	
7249	0	32844	
7250	0	32832	
7251	0	32804	
7252	0	32726	
7253	0	32784	
7254	0	32812	
7255	0	32770	
7256	0	32688	
7257	0	32805	
7258	0	32692	
7259	0	32700	
7260	0	32708	
7261	0	32736	
7262	0	32752	
7263	0	32824	
7264	0	32864	
7265	0	32836	
7266	0	32836	
7267	0	32892	
7268	0	32800	
7269	0	32840	
7270	0	32748	
7271	0	32737	
7272	0	32784	
7273	0	32840	
7274	0	32824	
7275	0	32752	
7276	0	32661	
7277	0	32680	
7278	0	32568	
7279	0	32912	
7280	0	32928	
7281	0	32688	
7282	0	32708	
7283	0	32826	
7284	0	32744	
7285	0	32816	
7286	0	32796	
7287	0	32720	
7288	0	32748	
7289	0	32788	
7290	0	32820	
7291	0	32844	
7292	0	32764	
7293	0	32805	
7294	0	32764	
7295	0	32664	
7296	0	32836	
7297	0	33008	
7298	0	32904	
7299	0	32672	
7300	0	32684	
7301	0	32732	
7302	0	32772	
7303	0	32802	
7304	0	32740	
7305	0	32776	
7306	0	32775	
7307	0	32736	
7308	0	32704	
7309	0	32768	
7310	0	32840	
7311	0	32752	
7312	0	32796	
7313	0	32832	
7314	0	32772	
7315	0	32812	
7316	0	32812	
7317	0	32718	
7318	0	32744	
7319	0	32696	
7320	0	32704	
7321	0	32700	
7322	0	32692	
7323	0	32892	
7324	0	32905	
7325	0	32893	
7326	0	32844	
7327	0	32789	
7328	0	32716	
7329	0	32684	
7330	0	32766	
7331	0	32848	
7332	0	32812	
7333	0	32828	
7334	0	32785	
7335	0	32732	
7336	0	32780	
7337	0	32744	
7338	0	32780	
7339	0	32628	
7340	0	32636	
7341	0	32808	
7342	0	32732	
7343	0	32668	
7344	0	32940	
7345	0	32864	
7346	0	32756	
7347	0	32868	
7348	0	32968	
7349	0	32780	
7350	0	32900	
7351	0	32876	
7352	0	32756	
7353	0	32772	
7354	0	32724	
7355	0	32672	
7356	0	32688	
7357	0	32836	
7358	0	32808	
7359	0	32712	
7360	0	32692	
7361	0	32728	
7362	0	32792	
7363	0	32792	
7364	0	32772	
7365	0	32832	
7366	0	32804	
7367	0	32680	
7368	0	32660	
7369	0	32712	
7370	0	32720	
7371	0	33056	
7372	0	33084	
7373	0	32872	
7374	0	32768	
7375	0	32704	
7376	0	32624	
7377	0	32596	
7378	0	32688	
7379	0	32670	
7380	0	32840	
7381	0	32908	
7382	0	32808	
7383	0	32766	
7384	0	32805	
7385	0	32860	
7386	0	32776	
7387	0	32788	
7388	0	32800	
7389	0	32869	
7390	0	32780	
7391	0	32765	
7392	0	32836	
7393	0	32828	
7394	0	32748	
7395	0	32804	
7396	0	32768	
7397	0	32780	
7398	0	32768	
7399	0	32712	
7400	0	32652	
7401	0	32652	
7402	0	32716	
7403	0	32751	
7404	0	32757	
7405	0	32942	
7406	0	32917	
7407	0	32816	
7408	0	32812	
7409	0	32816	
7410	0	32828	
7411	0	32932	
7412	0	32796	
7413	0	32824	
7414	0	32768	
7415	0	32640	
7416	0	32644	
7417	0	32500	
7418	0	32601	
7419	0	32892	
7420	0	32826	
7421	0	32892	
7422	0	32780	
7423	0	32676	
7424	0	32821	
7425	0	32924	
7426	0	32920	
7427	0	32832	
7428	0	32816	
7429	0	32688	
7430	0	32769	
7431	0	32844	
7432	0	32856	
7433	0	32868	
7434	0	32924	
7435	0	32900	
7436	0	32800	
7437	0	32640	
7438	0	32452	
7439	0	32572	
7440	0	32796	
7441	0	32664	
7442	0	32732	
7443	0	32812	
7444	0	32844	
7445	0	32740	
7446	0	32712	
7447	0	32768	
7448	0	32800	
7449	0	32836	
7450	0	32960	
7451	0	33008	
7452	0	32860	
7453	0	32788	
7454	0	32772	
7455	0	32688	
7456	0	32630	
7457	0	32740	
7458	0	32920	
7459	0	32800	
7460	0	32720	
7461	0	32636	
7462	0	32744	
7463	0	32904	
7464	0	32864	
7465	0	32804	
7466	0	32868	
7467	0	32700	
7468	0	32741	
7469	0	32774	
7470	0	32756	
7471	0	32879	
7472	0	32856	
7473	0	32876	
7474	0	32716	
7475	0	32764	
7476	0	32732	
7477	0	32760	
7478	0	32644	
7479	0	32604	
7480	0	32636	
7481	0	32736	
7482	0	32804	
7483	0	32852	
7484	0	32876	
7485	0	32820	
7486	0	32904	
7487	0	32800	
7488	0	32768	
7489	0	32776	
7490	0	32805	
7491	0	32712	
7492	0	32772	
7493	0	32860	
7494	0	32820	
7495	0	32736	
7496	0	32864	
7497	0	32904	
7498	0	32800	
7499	0	32636	
7500	0	32644	
7501	0	32740	
7502	0	32740	
7503	0	32840	
7504	0	32879	
7505	0	32945	
7506	0	32888	
7507	0	32656	
7508	0	32724	
7509	0	32784	
7510	0	32865	
7511	0	32932	
7512	0	32736	
7513	0	32812	
7514	0	32804	
7515	0	32788	
7516	0	32604	
7517	0	32665	
7518	0	32580	
7519	0	32620	
7520	0	32549	
7521	0	32600	
7522	0	32792	
7523	0	32916	
7524	0	32936	
7525	0	32900	
7526	0	32808	
7527	0	32796	
7528	0	32856	
7529	0	32830	
7530	0	32900	
7531	0	32836	
7532	0	32804	
7533	0	32804	
7534	0	32744	
7535	0	32682	
7536	0	32648	
7537	0	32780	
7538	0	32704	
7539	0	32724	
7540	0	32888	
7541	0	32900	
7542	0	32792	
7543	0	32724	
7544	0	32772	
7545	0	32740	
7546	0	32844	
7547	0	32892	
7548	0	32868	
7549	0	32896	
7550	0	32800	
7551	0	32778	
7552	0	32648	
7553	0	32621	
7554	0	32612	
7555	0	32725	
7556	0	32660	
7557	0	32516	
7558	0	32448	
7559	0	32689	
7560	0	32844	
7561	0	32796	
7562	0	33102	
7563	0	33272	
7564	0	33090	
7565	0	32964	
7566	0	32760	
7567	0	32740	
7568	0	32712	
7569	0	32744	
7570	0	32740	
7571	0	32826	
7572	0	32693	
7573	0	32785	
7574	0	32808	
7575	0	32796	
7576	0	32692	
7577	0	32648	
7578	0	32673	
7579	0	32684	
7580	0	32732	
7581	0	32708	
7582	0	32788	
7583	0	32836	
7584	0	32844	
7585	0	33004	
7586	0	32954	
7587	0	32832	
7588	0	32876	
7589	0	32837	
7590	0	32730	
7591	0	32792	
7592	0	32800	
7593	0	32788	
7594	0	32756	
7595	0	32704	
7596	0	32440	
7597	0	32520	
7598	0	32648	
7599	0	32760	
7600	0	32790	
7601	0	32868	
7602	0	32956	
7603	0	32940	
7604	0	32936	
7605	0	33268	
7606	0	33212	
7607	0	32964	
7608	0	32716	
7609	0	32524	
7610	0	32496	
7611	0	32392	
7612	0	32449	
7613	0	32646	
7614	0	32760	
7615	0	32928	
7616	0	32872	
7617	0	32756	
7618	0	32800	
7619	0	32696	
7620	0	32772	
7621	0	32854	
7622	0	32860	
7623	0	32792	
7624	0	32884	
7625	0	32826	
7626	0	32964	
7627	0	32976	
7628	0	32964	
7629	0	32860	
7630	0	32805	
7631	0	32704	
7632	0	32646	
7633	0	32752	
7634	0	32764	
7635	0	32740	
7636	0	32652	
7637	0	32748	
7638	0	32688	
7639	0	32680	
7640	0	32760	
7641	0	32748	
7642	0	32688	
7643	0	32632	
7644	0	32628	
7645	0	32704	
7646	0	32856	
7647	0	32872	
7648	0	32852	
7649	0	32864	
7650	0	32844	
7651	0	32809	
7652	0	32772	
7653	0	32788	
7654	0	32668	
7655	0	32662	
7656	0	32584	
7657	0	32624	
7658	0	32776	
7659	0	32817	
7660	0	32858	
7661	0	32836	
7662	0	32876	
7663	0	32876	
7664	0	32668	
7665	0	32724	
7666	0	32972	
7667	0	32720	
7668	0	32772	
7669	0	32888	
7670	0	32777	
7671	0	32816	
7672	0	32972	
7673	0	33008	
7674	0	32908	
7675	0	32688	
7676	0	32505	
7677	0	32704	
7678	0	33088	
7679	0	33044	
7680	0	32812	
7681	0	32836	
7682	0	32856	
7683	0	32763	
7684	0	32692	
7685	0	32480	
7686	0	32456	
7687	0	32446	
7688	0	32492	
7689	0	32744	
7690	0	33080	
7691	0	32972	
7692	0	32904	
7693	0	32868	
7694	0	32840	
7695	0	32872	
7696	0	32828	
7697	0	32764	
7698	0	32716	
7699	0	32584	
7700	0	32424	
7701	0	32576	
7702	0	32760	
7703	0	32788	
7704	0	32916	
7705	0	32904	
7706	0	32904	
7707	0	32856	
7708	0	32928	
7709	0	32912	
7710	0	33020	
7711	0	32916	
7712	0	32936	
7713	0	32964	
7714	0	32868	
7715	0	32704	
7716	0	32620	
7717	0	32608	
7718	0	32720	
7719	0	32824	
7720	0	32684	
7721	0	32668	
7722	0	32808	
7723	0	32704	
7724	0	32608	
7725	0	32696	
7726	0	32670	
7727	0	32717	
7728	0	33024	
7729	0	33228	
7730	0	33060	
7731	0	32840	
7732	0	32640	
7733	0	32572	
7734	0	32564	
7735	0	32484	
7736	0	32560	
7737	0	32480	
7738	0	32816	
7739	0	32984	
7740	0	32816	
7741	0	32768	
7742	0	32748	
7743	0	32877	
7744	0	32928	
7745	0	32862	
7746	0	32896	
7747	0	32796	
7748	0	32752	
7749	0	32832	
7750	0	32952	
7751	0	33021	
7752	0	32932	
7753	0	32864	
7754	0	32844	
7755	0	32696	
7756	0	32624	
7757	0	32661	
7758	0	32724	
7759	0	32816	
7760	0	32736	
7761	0	32792	
7762	0	32692	
7763	0	32672	
7764	0	32740	
7765	0	32708	
7766	0	32662	
7767	0	32668	
7768	0	32644	
7769	0	32684	
7770	0	32704	
7771	0	32748	
7772	0	32974	
7773	0	33132	
7774	0	32892	
7775	0	32832	
7776	0	32756	
7777	0	32768	
7778	0	32769	
7779	0	32824	
7780	0	32768	
7781	0	32809	
7782	0	32784	
7783	0	32784	
7784	0	32660	
7785	0	32644	
7786	0	32576	
7787	0	32660	
7788	0	32735	
7789	0	32781	
7790	0	32768	
7791	0	32740	
7792	0	32776	
7793	0	32797	
7794	0	32780	
7795	0	32768	
7796	0	32756	
7797	0	32952	
7798	0	32956	
7799	0	32877	
7800	0	32672	
7801	0	32640	
7802	0	32868	
7803	0	32756	
7804	0	32696	
7805	0	32768	
7806	0	32872	
7807	0	32896	
7808	0	32832	
7809	0	32872	
7810	0	32888	
7811	0	32856	
7812	0	32762	
7813	0	32669	
7814	0	32798	
7815	0	32896	
7816	0	32784	
7817	0	32712	
7818	0	32776	
7819	0	32684	
7820	0	32536	
7821	0	32736	
7822	0	32688	
7823	0	32784	
7824	0	32968	
7825	0	32884	
7826	0	32892	
7827	0	32822	
7828	0	32740	
7829	0	32740	
7830	0	32730	
7831	0	32753	
7832	0	32728	
7833	0	32856	
7834	0	32676	
7835	0	32584	
7836	0	32596	
7837	0	32648	
7838	0	32904	
7839	0	32996	
7840	0	32770	
7841	0	32700	
7842	0	32640	
7843	0	32581	
7844	0	32710	
7845	0	33196	
7846	0	33096	
7847	0	33060	
7848	0	33127	
7849	0	32892	
7850	0	32828	
7851	0	32680	
7852	0	32676	
7853	0	32724	
7854	0	32700	
7855	0	32596	
7856	0	32448	
7857	0	32496	
7858	0	32560	
7859	0	32688	
7860	0	32860	
7861	0	32916	
7862	0	32908	
7863	0	32976	
7864	0	33040	
7865	0	32944	
7866	0	32836	
7867	0	32684	
7868	0	32780	
7869	0	32728	
7870	0	32789	
7871	0	32816	
7872	0	32808	
7873	0	32856	
7874	0	32764	
7875	0	32732	
7876	0	32732	
7877	0	32732	
7878	0	32712	
7879	0	32724	
7880	0	32680	
7881	0	32696	
7882	0	32640	
7883	0	32776	
7884	0	32832	
7885	0	32952	
7886	0	32877	
7887	0	32812	
7888	0	32796	
7889	0	32802	
7890	0	32800	
7891	0	32816	
7892	0	32724	
7893	0	32820	
7894	0	32840	
7895	0	32796	
7896	0	32696	
7897	0	32708	
7898	0	32748	
7899	0	32756	
7900	0	32676	
7901	0	32700	
7902	0	32728	
7903	0	32812	
7904	0	32844	
7905	0	32820	
7906	0	32832	
7907	0	32796	
7908	0	32873	
7909	0	32848	
7910	0	32777	
7911	0	32824	
7912	0	32788	
7913	0	32833	
7914	0	32844	
7915	0	32756	
7916	0	32748	
7917	0	32704	
7918	0	32748	
7919	0	32748	
7920	0	32748	
7921	0	32688	
7922	0	32764	
7923	0	32816	
7924	0	32822	
7925	0	32808	
7926	0	32872	
7927	0	32796	
7928	0	32797	
7929	0	32740	
7930	0	32680	
7931	0	32644	
7932	0	32748	
7933	0	32848	
7934	0	32824	
7935	0	32880	
7936	0	32782	
7937	0	33016	
7938	0	33052	
7939	0	32872	
7940	0	32660	
7941	0	32504	
7942	0	32672	
7943	0	32684	
7944	0	32688	
7945	0	32644	
7946	0	32917	
7947	0	33004	
7948	0	32992	
7949	0	32909	
7950	0	32920	
7951	0	32884	
7952	0	32741	
7953	0	32696	
7954	0	32648	
7955	0	32388	
7956	0	32480	
7957	0	32832	
7958	0	32788	
7959	0	32800	
7960	0	32770	
7961	0	32733	
7962	0	32854	
7963	0	32808	
7964	0	32868	
7965	0	32860	
7966	0	32880	
7967	0	32756	
7968	0	32824	
7969	0	32832	
7970	0	32856	
7971	0	32900	
7972	0	32816	
7973	0	32784	
7974	0	32704	
7975	0	32748	
7976	0	32736	
7977	0	32680	
7978	0	32660	
7979	0	32788	
7980	0	32932	
7981	0	32916	
7982	0	32856	
7983	0	32804	
7984	0	32745	
7985	0	32776	
7986	0	32854	
7987	0	32808	
7988	0	32712	
7989	0	32784	
7990	0	32813	
7991	0	32576	
7992	0	32645	
7993	0	32780	
7994	0	32896	
7995	0	32832	
7996	0	32776	
7997	0	32740	
7998	0	32708	
7999	0	32684	
8000	0	32724	
8001	0	32686	
8002	0	32628	
8003	0	32644	
8004	0	32680	
8005	0	32821	
8006	0	32988	
8007	0	33056	
8008	0	32942	
8009	0	32960	
8010	0	33024	
8011	0	32773	
8012	0	32776	
8013	0	32748	
8014	0	32764	
8015	0	32749	
8016	0	32636	
8017	0	32588	
8018	0	32748	
8019	0	32920	
8020	0	32692	
8021	0	32540	
8022	0	32716	
8023	0	32712	
8024	0	32844	
8025	0	32788	
8026	0	32712	
8027	0	32696	
8028	0	32577	
8029	0	32664	
8030	0	32965	
8031	0	33245	
8032	0	33256	
8033	0	32992	
8034	0	32824	
8035	0	32840	
8036	0	32732	
8037	0	32660	
8038	0	32560	
8039	0	32540	
8040	0	32612	
8041	0	32792	
8042	0	32760	
8043	0	32712	
8044	0	32700	
8045	0	32820	
8046	0	32934	
8047	0	32716	
8048	0	32700	
8049	0	32744	
8050	0	32904	
8051	0	32905	
8052	0	32833	
8053	0	32708	
8054	0	32652	
8055	0	32576	
8056	0	32728	
8057	0	32876	
8058	0	32900	
8059	0	33100	
8060	0	32924	
8061	0	32628	
8062	0	32676	
8063	0	32776	
8064	0	32700	
8065	0	32628	
8066	0	32728	
8067	0	32672	
8068	0	32812	
8069	0	32848	
8070	0	32832	
8071	0	32824	
8072	0	32800	
8073	0	32673	
8074	0	32916	
8075	0	32960	
8076	0	32948	
8077	0	32860	
8078	0	32724	
8079	0	32792	
8080	0	32704	
8081	0	32500	
8082	0	32484	
8083	0	32596	
8084	0	32837	
8085	0	32960	
8086	0	32888	
8087	0	32900	
8088	0	32768	
8089	0	32720	
8090	0	32740	
8091	0	32780	
8092	0	32676	
8093	0	32764	
8094	0	32828	
8095	0	32937	
8096	0	32869	
8097	0	32692	
8098	0	32724	
8099	0	32740	
8100	0	32628	
8101	0	32568	
8102	0	32672	
8103	0	32716	
8104	0	32884	
8105	0	32800	
8106	0	32912	
8107	0	32856	
8108	0	32796	
8109	0	32804	
8110	0	32840	
8111	0	32856	
8112	0	32804	
8113	0	32856	
8114	0	32844	
8115	0	32900	
8116	0	32768	
8117	0	32716	
8118	0	32636	
8119	0	32644	
8120	0	32652	
8121	0	32725	
8122	0	32784	
8123	0	32940	
8124	0	32848	
8125	0	32852	
8126	0	32824	
8127	0	32704	
8128	0	32692	
8129	0	32592	
8130	0	32760	
8131	0	32628	
8132	0	32668	
8133	0	32940	
8134	0	33084	
8135	0	32760	
8136	0	32576	
8137	0	32570	
8138	0	32928	
8139	0	33181	
8140	0	33044	
8141	0	32864	
8142	0	32704	
8143	0	32685	
8144	0	32696	
8145	0	32744	
8146	0	32800	
8147	0	32860	
8148	0	32832	
8149	0	32744	
8150	0	32800	
8151	0	32812	
8152	0	32764	
8153	0	32748	
8154	0	32808	
8155	0	32860	
8156	0	32772	
8157	0	32756	
8158	0	32792	
8159	0	32716	
8160	0	32640	
8161	0	32664	
8162	0	32588	
8163	0	32544	
8164	0	32884	
8165	0	32940	
8166	0	32864	
8167	0	32824	
8168	0	32870	
8169	0	32876	
8170	0	32836	
8171	0	32782	
8172	0	32768	
8173	0	32836	
8174	0	32824	
8175	0	32832	
8176	0	32792	
8177	0	32748	
8178	0	32696	
8179	0	32752	
8180	0	32704	
8181	0	32664	
8182	0	32694	
8183	0	32768	
8184	0	32740	
8185	0	32780	
8186	0	32836	
8187	0	32832	
8188	0	32824	
8189	0	32732	
8190	0	32778	
8191	0	32968	
8192	0	32952	
8193	0	32880	
8194	0	32757	
8195	0	32740	
8196	0	32629	
8197	0	32632	
8198	0	32816	
8199	0	32784	
8200	0	32760	
8201	0	32788	
8202	0	32804	
8203	0	32750	
8204	0	32837	
8205	0	32952	
8206	0	32976	
8207	0	32920	
8208	0	32864	
8209	0	32680	
8210	0	32678	
8211	0	32676	
8212	0	32856	
8213	0	32804	
8214	0	32925	
8215	0	32850	
8216	0	32612	
8217	0	32640	
8218	0	32669	
8219	0	32628	
8220	0	32496	
8221	0	32668	
8222	0	32740	
8223	0	32702	
8224	0	32784	
8225	0	32972	
8226	0	33053	
8227	0	32992	
8228	0	33053	
8229	0	32878	
8230	0	32756	
8231	0	32732	
8232	0	32908	
8233	0	32788	
8234	0	32724	
8235	0	32620	
8236	0	32676	
8237	0	32724	
8238	0	32684	
8239	0	32648	
8240	0	32656	
8241	0	32692	
8242	0	32684	
8243	0	32804	
8244	0	32908	
8245	0	32960	
8246	0	32984	
8247	0	32905	
8248	0	32832	
8249	0	32756	
8250	0	32912	
8251	0	32814	
8252	0	32620	
8253	0	32672	
8254	0	32724	
8255	0	32780	
8256	0	32824	
8257	0	32860	
8258	0	32908	
8259	0	32852	
8260	0	32752	
8261	0	32636	
8262	0	32608	
8263	0	32612	
8264	0	32772	
8265	0	32768	
8266	0	32780	
8267	0	32844	
8268	0	32788	
8269	0	32824	
8270	0	32784	
8271	0	32888	
8272	0	32804	
8273	0	32852	
8274	0	32820	
8275	0	32761	
8276	0	32796	
8277	0	32720	
8278	0	32704	
8279	0	32708	
8280	0	32716	
8281	0	32663	
8282	0	32728	
8283	0	32736	
8284	0	32788	
8285	0	32832	
8286	0	32984	
8287	0	32968	
8288	0	32809	
8289	0	32776	
8290	0	32628	
8291	0	32644	
8292	0	32884	
8293	0	32768	
8294	0	32728	
8295	0	32760	
8296	0	32580	
8297	0	32496	
8298	0	32832	
8299	0	33333	
8300	0	33101	
8301	0	32812	
8302	0	32596	
8303	0	32620	
8304	0	32820	
8305	0	32841	
8306	0	32820	
8307	0	32748	
8308	0	32752	
8309	0	32740	
8310	0	32740	
8311	0	32696	
8312	0	32708	
8313	0	32832	
8314	0	32900	
8315	0	32800	
8316	0	32704	
8317	0	32656	
8318	0	32748	
8319	0	32620	
8320	0	32492	
8321	0	32620	
8322	0	32761	
8323	0	32886	
8324	0	32844	
8325	0	32972	
8326	0	33128	
8327	0	32944	
8328	0	32780	
8329	0	32804	
8330	0	32740	
8331	0	32764	
8332	0	32716	
8333	0	32866	
8334	0	32872	
8335	0	32804	
8336	0	32664	
8337	0	32632	
8338	0	32840	
8339	0	32780	
8340	0	32688	
8341	0	32677	
8342	0	32709	
8343	0	32708	
8344	0	32752	
8345	0	32812	
8346	0	32736	
8347	0	32788	
8348	0	32880	
8349	0	32732	
8350	0	32816	
8351	0	33096	
8352	0	32892	
8353	0	32908	
8354	0	32901	
8355	0	32864	
8356	0	32829	
8357	0	32676	
8358	0	32600	
8359	0	32629	
8360	0	32548	
8361	0	32664	
8362	0	32673	
8363	0	32736	
8364	0	32604	
8365	0	32656	
8366	0	32780	
8367	0	33237	
8368	0	33172	
8369	0	32876	
8370	0	32880	
8371	0	32824	
8372	0	32750	
8373	0	32806	
8374	0	32752	
8375	0	32789	
8376	0	32732	
8377	0	32680	
8378	0	32660	
8379	0	32628	
8380	0	32644	
8381	0	32688	
8382	0	32774	
8383	0	32768	
8384	0	32756	
8385	0	32808	
8386	0	32740	
8387	0	32780	
8388	0	32764	
8389	0	32744	
8390	0	32822	
8391	0	32744	
8392	0	32760	
8393	0	32774	
8394	0	33100	
8395	0	33168	
8396	0	32893	
8397	0	32760	
8398	0	32804	
8399	0	32832	
8400	0	32676	
8401	0	32580	
8402	0	32640	
8403	0	32760	
8404	0	32820	
8405	0	32772	
8406	0	32796	
8407	0	32764	
8408	0	32768	
8409	0	32592	
8410	0	32688	
8411	0	32868	
8412	0	32869	
8413	0	32780	
8414	0	32740	
8415	0	32816	
8416	0	32596	
8417	0	32632	
8418	0	32792	
8419	0	32916	
8420	0	33056	
8421	0	32946	
8422	0	32812	
8423	0	32728	
8424	0	32752	
8425	0	32672	
8426	0	32733	
8427	0	32796	
8428	0	32768	
8429	0	32769	
8430	0	32748	
8431	0	32878	
8432	0	32784	
8433	0	32772	
8434	0	32816	
8435	0	32788	
8436	0	32764	
8437	0	32688	
8438	0	32856	
8439	0	32584	
8440	0	32640	
8441	0	32676	
8442	0	32696	
8443	0	32808	
8444	0	32844	
8445	0	32888	
8446	0	32844	
8447	0	32837	
8448	0	32820	
8449	0	32848	
8450	0	32820	
8451	0	32845	
8452	0	32656	
8453	0	32584	
8454	0	32732	
8455	0	32796	
8456	0	32796	
8457	0	32788	
8458	0	32756	
8459	0	32768	
8460	0	32704	
8461	0	32660	
8462	0	32717	
8463	0	32516	
8464	0	32682	
8465	0	33000	
8466	0	33360	
8467	0	33076	
8468	0	32932	
8469	0	32788	
8470	0	32773	
8471	0	32804	
8472	0	32704	
8473	0	32684	
8474	0	32744	
8475	0	32760	
8476	0	32650	
8477	0	32736	
8478	0	32712	
8479	0	32756	
8480	0	32768	
8481	0	32790	
8482	0	32584	
8483	0	32596	
8484	0	32716	
8485	0	33160	
8486	0	33164	
8487	0	32992	
8488	0	32832	
8489	0	32613	
8490	0	32628	
8491	0	32584	
8492	0	32752	
8493	0	32884	
8494	0	32868	
8495	0	32896	
8496	0	32768	
8497	0	32737	
8498	0	32724	
8499	0	32808	
8500	0	32672	
8501	0	32756	
8502	0	32680	
8503	0	32780	
8504	0	32796	
8505	0	32737	
8506	0	32740	
8507	0	32816	
8508	0	32760	
8509	0	32784	
8510	0	32784	
8511	0	32796	
8512	0	32704	
8513	0	32776	
8514	0	32916	
8515	0	32880	
8516	0	32764	
8517	0	32728	
8518	0	32724	
8519	0	32612	
8520	0	32644	
8521	0	32828	
8522	0	32916	
8523	0	32988	
8524	0	32996	
8525	0	33036	
8526	0	32900	
8527	0	32824	
8528	0	32864	
8529	0	32772	
8530	0	32692	
8531	0	32701	
8532	0	32754	
8533	0	32604	
8534	0	32712	
8535	0	32808	
8536	0	32908	
8537	0	32804	
8538	0	32721	
8539	0	32714	
8540	0	32518	
8541	0	32516	
8542	0	32560	
8543	0	32556	
8544	0	32708	
8545	0	32916	
8546	0	32848	
8547	0	32789	
8548	0	32820	
8549	0	32886	
8550	0	33024	
8551	0	33104	
8552	0	33020	
8553	0	32888	
8554	0	32836	
8555	0	32752	
8556	0	32756	
8557	0	32636	
8558	0	32556	
8559	0	32564	
8560	0	32700	
8561	0	32660	
8562	0	32772	
8563	0	32764	
8564	0	32792	
8565	0	32801	
8566	0	32868	
8567	0	32820	
8568	0	32816	
8569	0	32780	
8570	0	32973	
8571	0	32916	
8572	0	32836	
8573	0	32760	
8574	0	32760	
8575	0	32920	
8576	0	32860	
8577	0	32676	
8578	0	32596	
8579	0	32652	
8580	0	32704	
8581	0	32776	
8582	0	32777	
8583	0	32760	
8584	0	32798	
8585	0	32856	
8586	0	32852	
8587	0	32952	
8588	0	32964	
8589	0	32724	
8590	0	32656	
8591	0	32836	
8592	0	32864	
8593	0	32748	
8594	0	32677	
8595	0	32684	
8596	0	32800	
8597	0	32772	
8598	0	32804	
8599	0	32800	
8600	0	32798	
8601	0	32668	
8602	0	32628	
8603	0	32740	
8604	0	32808	
8605	0	32844	
8606	0	32776	
8607	0	32772	
8608	0	32778	
8609	0	32762	
8610	0	32780	
8611	0	32800	
8612	0	32800	
8613	0	32924	
