# OpenSignals Text File Format. Version 1
# {"00:07:80:4D:2E:9E": {"position": 0, "device": "biosignalsplux", "device name": "00:07:80:4D:2E:9E", "device connection": "BTH00:07:80:4D:2E:9E", "sampling rate": 1000, "resolution": [16], "firmware version": 774, "comments": "", "keywords": "", "mode": 0, "sync interval": 2, "date": "2020-7-9", "time": "13:48:23.925", "channels": [1], "sensor": ["EMG"], "label": ["CH1"], "column": ["nSeq", "DI", "CH1"], "special": [{}], "digital IO": [0, 1]}}
# EndOfHeader
0	0	33076	
1	0	33104	
2	0	33108	
3	0	33108	
4	0	33028	
5	0	32889	
6	0	32712	
7	0	32661	
8	0	32560	
9	0	32472	
10	0	32552	
11	0	32532	
12	0	32576	
13	0	32612	
14	0	32638	
15	0	32820	
16	0	32900	
17	0	32932	
18	0	33008	
19	0	32984	
20	0	32960	
21	0	32973	
22	0	33060	
23	0	33080	
24	0	33068	
25	0	32903	
26	0	32796	
27	0	32460	
28	0	32360	
29	0	32424	
30	0	32364	
31	0	32464	
32	0	32616	
33	0	32712	
34	0	32844	
35	0	32824	
36	0	32856	
37	0	32864	
38	0	32896	
39	0	32964	
40	0	33024	
41	0	32988	
42	0	33108	
43	0	33144	
44	0	32948	
45	0	32762	
46	0	32660	
47	0	32664	
48	0	32608	
49	0	32500	
50	0	32408	
51	0	32356	
52	0	32560	
53	0	32696	
54	0	32892	
55	0	32836	
56	0	32868	
57	0	32988	
58	0	32954	
59	0	32840	
60	0	32648	
61	0	32680	
62	0	32972	
63	0	33160	
64	0	33152	
65	0	33008	
66	0	32876	
67	0	32612	
68	0	32516	
69	0	32342	
70	0	32364	
71	0	32336	
72	0	32560	
73	0	32692	
74	0	32816	
75	0	32908	
76	0	32928	
77	0	33060	
78	0	33109	
79	0	32996	
80	0	32892	
81	0	32828	
82	0	32940	
83	0	33084	
84	0	33176	
85	0	32846	
86	0	32608	
87	0	32521	
88	0	32560	
89	0	32548	
90	0	32590	
91	0	32476	
92	0	32508	
93	0	32548	
94	0	32661	
95	0	32790	
96	0	32808	
97	0	33132	
98	0	33212	
99	0	33077	
100	0	32864	
101	0	32760	
102	0	32812	
103	0	33020	
104	0	32957	
105	0	32808	
106	0	32660	
107	0	32692	
108	0	32548	
109	0	32440	
110	0	32340	
111	0	32380	
112	0	32620	
113	0	32736	
114	0	32872	
115	0	32868	
116	0	32920	
117	0	32868	
118	0	32880	
119	0	33028	
120	0	32956	
121	0	32912	
122	0	33004	
123	0	33044	
124	0	32940	
125	0	32936	
126	0	32804	
127	0	32724	
128	0	32460	
129	0	32428	
130	0	32382	
131	0	32412	
132	0	32665	
133	0	32812	
134	0	32728	
135	0	32724	
136	0	32800	
137	0	32913	
138	0	32857	
139	0	32932	
140	0	32964	
141	0	33012	
142	0	32968	
143	0	33098	
144	0	32918	
145	0	32816	
146	0	32740	
147	0	32660	
148	0	32444	
149	0	32456	
150	0	32526	
151	0	32552	
152	0	32544	
153	0	32636	
154	0	32728	
155	0	32784	
156	0	32804	
157	0	32912	
158	0	32968	
159	0	33092	
160	0	32948	
161	0	32956	
162	0	33024	
163	0	33020	
164	0	33020	
165	0	32816	
166	0	32712	
167	0	32644	
168	0	32432	
169	0	32480	
170	0	32384	
171	0	32357	
172	0	32516	
173	0	32792	
174	0	32992	
175	0	33044	
176	0	32784	
177	0	32644	
178	0	32804	
179	0	32996	
180	0	33072	
181	0	33236	
182	0	33156	
183	0	32956	
184	0	32768	
185	0	32592	
186	0	32624	
187	0	32672	
188	0	32576	
189	0	32460	
190	0	32360	
191	0	32448	
192	0	32660	
193	0	32768	
194	0	32880	
195	0	32976	
196	0	32864	
197	0	32708	
198	0	32750	
199	0	32916	
200	0	32945	
201	0	32985	
202	0	33160	
203	0	33053	
204	0	32952	
205	0	32896	
206	0	32700	
207	0	32624	
208	0	32570	
209	0	32456	
210	0	32408	
211	0	32400	
212	0	32620	
213	0	32676	
214	0	32700	
215	0	32852	
216	0	32872	
217	0	32926	
218	0	32896	
219	0	32996	
220	0	33044	
221	0	32992	
222	0	33045	
223	0	33092	
224	0	33052	
225	0	32924	
226	0	32692	
227	0	32632	
228	0	32344	
229	0	32268	
230	0	32372	
231	0	32448	
232	0	32672	
233	0	32749	
234	0	32708	
235	0	32764	
236	0	32824	
237	0	32868	
238	0	32984	
239	0	33024	
240	0	33036	
241	0	33040	
242	0	33000	
243	0	33081	
244	0	33064	
245	0	32844	
246	0	32692	
247	0	32512	
248	0	32376	
249	0	32350	
250	0	32468	
251	0	32493	
252	0	32556	
253	0	32633	
254	0	32704	
255	0	32852	
256	0	32948	
257	0	32932	
258	0	32932	
259	0	33024	
260	0	33180	
261	0	33156	
262	0	33194	
263	0	33112	
264	0	32784	
265	0	32576	
266	0	32584	
267	0	32608	
268	0	32502	
269	0	32432	
270	0	32476	
271	0	32368	
272	0	32600	
273	0	32677	
274	0	32624	
275	0	32840	
276	0	32932	
277	0	32908	
278	0	32860	
279	0	32956	
280	0	32953	
281	0	32885	
282	0	33068	
283	0	33148	
284	0	33064	
285	0	32916	
286	0	32816	
287	0	32616	
288	0	32512	
289	0	32392	
290	0	32429	
291	0	32508	
292	0	32648	
293	0	32664	
294	0	32804	
295	0	32841	
296	0	33012	
297	0	32948	
298	0	32908	
299	0	32865	
300	0	32992	
301	0	33121	
302	0	33160	
303	0	33052	
304	0	32870	
305	0	32680	
306	0	32496	
307	0	32536	
308	0	32452	
309	0	32468	
310	0	32384	
311	0	32468	
312	0	32692	
313	0	32708	
314	0	32814	
315	0	32816	
316	0	32820	
317	0	32892	
318	0	32964	
319	0	33001	
320	0	32988	
321	0	32996	
322	0	33092	
323	0	33080	
324	0	32972	
325	0	32884	
326	0	32748	
327	0	32580	
328	0	32492	
329	0	32416	
330	0	32384	
331	0	32496	
332	0	32652	
333	0	32804	
334	0	32824	
335	0	32896	
336	0	33016	
337	0	33078	
338	0	32994	
339	0	32724	
340	0	32636	
341	0	32669	
342	0	33088	
343	0	33272	
344	0	32992	
345	0	32848	
346	0	32672	
347	0	32440	
348	0	32464	
349	0	32470	
350	0	32288	
351	0	32408	
352	0	32604	
353	0	32784	
354	0	32988	
355	0	32960	
356	0	32885	
357	0	32879	
358	0	33016	
359	0	32940	
360	0	33000	
361	0	32949	
362	0	32952	
363	0	32876	
364	0	32889	
365	0	32872	
366	0	32792	
367	0	32704	
368	0	32624	
369	0	32616	
370	0	32508	
371	0	32252	
372	0	32404	
373	0	32672	
374	0	32660	
375	0	32834	
376	0	33028	
377	0	33000	
378	0	32937	
379	0	32932	
380	0	32972	
381	0	33032	
382	0	33116	
383	0	33068	
384	0	32911	
385	0	32756	
386	0	32688	
387	0	32632	
388	0	32500	
389	0	32368	
390	0	32352	
391	0	32441	
392	0	32560	
393	0	32734	
394	0	32768	
395	0	32832	
396	0	32920	
397	0	32944	
398	0	32944	
399	0	33008	
400	0	32936	
401	0	33016	
402	0	33040	
403	0	33032	
404	0	32984	
405	0	32844	
406	0	32632	
407	0	32628	
408	0	32596	
409	0	32604	
410	0	32376	
411	0	32448	
412	0	32585	
413	0	32593	
414	0	32616	
415	0	32720	
416	0	32809	
417	0	32872	
418	0	32984	
419	0	33094	
420	0	33142	
421	0	33044	
422	0	33032	
423	0	33024	
424	0	32958	
425	0	32828	
426	0	32775	
427	0	32596	
428	0	32580	
429	0	32410	
430	0	32244	
431	0	32332	
432	0	32496	
433	0	32673	
434	0	32740	
435	0	32942	
436	0	32968	
437	0	32948	
438	0	32936	
439	0	32996	
440	0	32980	
441	0	32989	
442	0	32968	
443	0	33000	
444	0	33053	
445	0	32940	
446	0	32868	
447	0	32662	
448	0	32576	
449	0	32656	
450	0	32524	
451	0	32424	
452	0	32164	
453	0	32112	
454	0	32380	
455	0	32821	
456	0	33061	
457	0	33176	
458	0	33168	
459	0	33016	
460	0	33060	
461	0	33048	
462	0	33013	
463	0	33028	
464	0	33004	
465	0	32909	
466	0	32752	
467	0	32652	
468	0	32528	
469	0	32376	
470	0	32255	
471	0	32372	
472	0	32528	
473	0	32664	
474	0	32800	
475	0	32804	
476	0	33000	
477	0	32900	
478	0	32956	
479	0	32996	
480	0	33028	
481	0	33028	
482	0	33060	
483	0	33148	
484	0	33084	
485	0	32868	
486	0	32780	
487	0	32716	
488	0	32466	
489	0	32304	
490	0	32212	
491	0	32380	
492	0	32513	
493	0	32596	
494	0	32728	
495	0	32844	
496	0	33040	
497	0	32972	
498	0	32984	
499	0	32956	
500	0	32948	
501	0	32968	
502	0	33026	
503	0	33060	
504	0	33004	
505	0	32908	
506	0	32692	
507	0	32596	
508	0	32556	
509	0	32424	
510	0	32456	
511	0	32384	
512	0	32572	
513	0	32764	
514	0	32808	
515	0	32830	
516	0	32996	
517	0	32988	
518	0	32860	
519	0	32836	
520	0	32832	
521	0	32924	
522	0	33108	
523	0	33268	
524	0	33200	
525	0	32908	
526	0	32628	
527	0	32441	
528	0	32244	
529	0	32244	
530	0	32368	
531	0	32448	
532	0	32564	
533	0	32724	
534	0	32788	
535	0	32884	
536	0	32924	
537	0	32936	
538	0	33028	
539	0	33020	
540	0	33165	
541	0	33088	
542	0	33100	
543	0	33084	
544	0	32932	
545	0	32709	
546	0	32720	
547	0	32624	
548	0	32400	
549	0	32232	
550	0	32288	
551	0	32324	
552	0	32516	
553	0	32656	
554	0	32728	
555	0	32866	
556	0	32952	
557	0	33100	
558	0	33120	
559	0	32984	
560	0	32852	
561	0	32860	
562	0	33052	
563	0	33172	
564	0	33056	
565	0	32856	
566	0	32664	
567	0	32720	
568	0	32670	
569	0	32452	
570	0	32437	
571	0	32292	
572	0	32444	
573	0	32628	
574	0	32708	
575	0	32744	
576	0	32796	
577	0	32760	
578	0	33012	
579	0	33120	
580	0	33012	
581	0	32932	
582	0	33028	
583	0	32980	
584	0	32976	
585	0	32896	
586	0	32864	
587	0	32656	
588	0	32500	
589	0	32361	
590	0	32428	
591	0	32400	
592	0	32576	
593	0	32696	
594	0	32728	
595	0	32841	
596	0	32904	
597	0	32885	
598	0	32888	
599	0	32952	
600	0	33020	
601	0	33024	
602	0	33008	
603	0	33024	
604	0	33024	
605	0	32944	
606	0	32682	
607	0	32684	
608	0	32494	
609	0	32388	
610	0	32266	
611	0	32448	
612	0	32568	
613	0	32708	
614	0	32732	
615	0	32864	
616	0	32908	
617	0	32972	
618	0	32932	
619	0	33012	
620	0	33008	
621	0	32916	
622	0	32988	
623	0	33120	
624	0	33076	
625	0	32873	
626	0	32816	
627	0	32624	
628	0	32486	
629	0	32506	
630	0	32368	
631	0	32232	
632	0	32408	
633	0	32696	
634	0	32848	
635	0	32956	
636	0	33076	
637	0	33032	
638	0	33008	
639	0	32832	
640	0	32828	
641	0	32844	
642	0	33000	
643	0	33024	
644	0	32960	
645	0	32832	
646	0	32840	
647	0	32704	
648	0	32478	
649	0	32344	
650	0	32268	
651	0	32508	
652	0	32708	
653	0	32844	
654	0	32764	
655	0	32648	
656	0	32712	
657	0	32893	
658	0	32857	
659	0	33044	
660	0	33176	
661	0	33180	
662	0	33088	
663	0	32973	
664	0	33012	
665	0	32904	
666	0	32616	
667	0	32553	
668	0	32512	
669	0	32384	
670	0	32324	
671	0	32408	
672	0	32596	
673	0	32788	
674	0	32772	
675	0	32812	
676	0	32804	
677	0	32903	
678	0	32976	
679	0	32988	
680	0	33106	
681	0	33160	
682	0	33142	
683	0	33148	
684	0	33064	
685	0	32824	
686	0	32468	
687	0	32356	
688	0	32444	
689	0	32536	
690	0	32420	
691	0	32380	
692	0	32432	
693	0	32560	
694	0	32704	
695	0	32917	
696	0	32996	
697	0	32936	
698	0	32976	
699	0	32988	
700	0	32948	
701	0	32932	
702	0	33072	
703	0	33016	
704	0	33016	
705	0	32836	
706	0	32638	
707	0	32588	
708	0	32558	
709	0	32644	
710	0	32544	
711	0	32477	
712	0	32636	
713	0	32684	
714	0	32684	
715	0	32720	
716	0	32872	
717	0	32840	
718	0	33000	
719	0	33004	
720	0	33060	
721	0	32961	
722	0	32944	
723	0	32964	
724	0	32932	
725	0	32894	
726	0	32796	
727	0	32704	
728	0	32641	
729	0	32512	
730	0	32368	
731	0	32392	
732	0	32556	
733	0	32676	
734	0	32840	
735	0	32840	
736	0	32812	
737	0	32872	
738	0	32817	
739	0	32860	
740	0	32944	
741	0	32952	
742	0	32944	
743	0	33052	
744	0	33068	
745	0	32984	
746	0	32840	
747	0	32696	
748	0	32624	
749	0	32485	
750	0	32372	
751	0	32360	
752	0	32448	
753	0	32604	
754	0	32816	
755	0	33052	
756	0	32956	
757	0	32948	
758	0	32912	
759	0	32912	
760	0	32952	
761	0	32932	
762	0	32916	
763	0	33080	
764	0	32996	
765	0	32736	
766	0	32608	
767	0	32568	
768	0	32544	
769	0	32440	
770	0	32440	
771	0	32384	
772	0	32501	
773	0	32628	
774	0	32706	
775	0	32836	
776	0	32968	
777	0	33036	
778	0	32988	
779	0	33012	
780	0	32884	
781	0	33080	
782	0	33140	
783	0	33100	
784	0	32992	
785	0	32816	
786	0	32720	
787	0	32700	
788	0	32636	
789	0	32512	
790	0	32392	
791	0	32376	
792	0	32400	
793	0	32444	
794	0	32616	
795	0	32748	
796	0	32840	
797	0	32972	
798	0	33108	
799	0	33148	
800	0	33020	
801	0	33060	
802	0	33064	
803	0	33008	
804	0	32948	
805	0	32832	
806	0	32728	
807	0	32704	
808	0	32564	
809	0	32520	
810	0	32504	
811	0	32348	
812	0	32470	
813	0	32744	
814	0	32644	
815	0	32728	
816	0	32740	
817	0	32900	
818	0	32934	
819	0	32996	
820	0	33028	
821	0	32980	
822	0	33056	
823	0	33120	
824	0	33068	
825	0	32872	
826	0	32805	
827	0	32644	
828	0	32524	
829	0	32480	
830	0	32508	
831	0	32524	
832	0	32536	
833	0	32561	
834	0	32829	
835	0	32744	
836	0	32676	
837	0	32632	
838	0	32701	
839	0	32933	
840	0	33098	
841	0	33108	
842	0	33076	
843	0	33176	
844	0	33032	
845	0	32948	
846	0	32794	
847	0	32597	
848	0	32432	
849	0	32276	
850	0	32384	
851	0	32388	
852	0	32512	
853	0	32616	
854	0	32745	
855	0	32932	
856	0	33121	
857	0	33092	
858	0	33048	
859	0	33053	
860	0	32900	
861	0	32881	
862	0	32956	
863	0	32996	
864	0	32896	
865	0	32764	
866	0	32745	
867	0	32592	
868	0	32474	
869	0	32452	
870	0	32344	
871	0	32268	
872	0	32588	
873	0	32736	
874	0	32900	
875	0	33000	
876	0	32958	
877	0	32840	
878	0	32848	
879	0	33000	
880	0	33098	
881	0	32997	
882	0	33012	
883	0	33060	
884	0	32840	
885	0	32740	
886	0	32664	
887	0	32660	
888	0	32536	
889	0	32474	
890	0	32560	
891	0	32488	
892	0	32620	
893	0	32776	
894	0	32604	
895	0	32712	
896	0	32876	
897	0	32968	
898	0	32996	
899	0	32992	
900	0	32960	
901	0	32928	
902	0	32952	
903	0	33032	
904	0	33100	
905	0	33036	
906	0	32778	
907	0	32664	
908	0	32496	
909	0	32448	
910	0	32416	
911	0	32359	
912	0	32482	
913	0	32564	
914	0	32660	
915	0	32816	
916	0	32876	
917	0	32980	
918	0	32940	
919	0	33016	
920	0	33109	
921	0	33088	
922	0	33120	
923	0	33052	
924	0	32856	
925	0	32748	
926	0	32700	
927	0	32660	
928	0	32484	
929	0	32284	
930	0	32240	
931	0	32452	
932	0	32636	
933	0	32780	
934	0	32876	
935	0	32928	
936	0	32796	
937	0	32820	
938	0	32868	
939	0	32908	
940	0	33004	
941	0	32892	
942	0	33029	
943	0	33044	
944	0	33189	
945	0	33084	
946	0	32888	
947	0	32690	
948	0	32480	
949	0	32216	
950	0	32172	
951	0	32280	
952	0	32552	
953	0	32788	
954	0	32744	
955	0	32788	
956	0	32796	
957	0	32824	
958	0	32844	
959	0	32998	
960	0	33052	
961	0	33028	
962	0	33072	
963	0	33180	
964	0	33100	
965	0	32940	
966	0	32756	
967	0	32624	
968	0	32528	
969	0	32532	
970	0	32364	
971	0	32384	
972	0	32492	
973	0	32696	
974	0	32692	
975	0	32868	
976	0	32919	
977	0	32996	
978	0	33008	
979	0	33022	
980	0	33188	
981	0	33044	
982	0	32828	
983	0	32840	
984	0	32928	
985	0	32884	
986	0	32836	
987	0	32660	
988	0	32584	
989	0	32432	
990	0	32237	
991	0	32296	
992	0	32432	
993	0	32636	
994	0	32745	
995	0	32864	
996	0	32944	
997	0	32920	
998	0	32968	
999	0	33044	
1000	0	32992	
1001	0	33016	
1002	0	32932	
1003	0	32980	
1004	0	33100	
1005	0	33000	
1006	0	32784	
1007	0	32676	
1008	0	32596	
1009	0	32456	
1010	0	32308	
1011	0	32364	
1012	0	32668	
1013	0	32694	
1014	0	32826	
1015	0	32888	
1016	0	32820	
1017	0	32792	
1018	0	32896	
1019	0	32804	
1020	0	32872	
1021	0	32876	
1022	0	32992	
1023	0	33100	
1024	0	32964	
1025	0	32824	
1026	0	32588	
1027	0	32624	
1028	0	32668	
1029	0	32672	
1030	0	32588	
1031	0	32540	
1032	0	32613	
1033	0	32630	
1034	0	32680	
1035	0	32802	
1036	0	32808	
1037	0	32844	
1038	0	33044	
1039	0	32992	
1040	0	33080	
1041	0	32984	
1042	0	32932	
1043	0	32932	
1044	0	32864	
1045	0	32800	
1046	0	32792	
1047	0	32628	
1048	0	32649	
1049	0	32700	
1050	0	32484	
1051	0	32380	
1052	0	32368	
1053	0	32516	
1054	0	32748	
1055	0	32860	
1056	0	32910	
1057	0	32836	
1058	0	32940	
1059	0	32908	
1060	0	33108	
1061	0	33220	
1062	0	33150	
1063	0	32980	
1064	0	32724	
1065	0	32528	
1066	0	32524	
1067	0	32548	
1068	0	32608	
1069	0	32568	
1070	0	32453	
1071	0	32592	
1072	0	32692	
1073	0	32764	
1074	0	32748	
1075	0	32804	
1076	0	32780	
1077	0	32820	
1078	0	32972	
1079	0	32944	
1080	0	33016	
1081	0	33060	
1082	0	32996	
1083	0	33088	
1084	0	32954	
1085	0	32873	
1086	0	32744	
1087	0	32676	
1088	0	32609	
1089	0	32562	
1090	0	32380	
1091	0	32492	
1092	0	32530	
1093	0	32592	
1094	0	32732	
1095	0	32748	
1096	0	32736	
1097	0	32756	
1098	0	32876	
1099	0	33024	
1100	0	32972	
1101	0	33009	
1102	0	32980	
1103	0	33120	
1104	0	33198	
1105	0	32940	
1106	0	32736	
1107	0	32546	
1108	0	32486	
1109	0	32548	
1110	0	32365	
1111	0	32390	
1112	0	32484	
1113	0	32636	
1114	0	32709	
1115	0	32876	
1116	0	33109	
1117	0	33064	
1118	0	32912	
1119	0	32966	
1120	0	32904	
1121	0	32912	
1122	0	32996	
1123	0	32928	
1124	0	32980	
1125	0	32760	
1126	0	32768	
1127	0	32644	
1128	0	32508	
1129	0	32469	
1130	0	32556	
1131	0	32544	
1132	0	32572	
1133	0	32662	
1134	0	32612	
1135	0	32641	
1136	0	32720	
1137	0	32844	
1138	0	32944	
1139	0	33120	
1140	0	32952	
1141	0	32908	
1142	0	32952	
1143	0	32988	
1144	0	33097	
1145	0	32976	
1146	0	32776	
1147	0	32680	
1148	0	32612	
1149	0	32492	
1150	0	32436	
1151	0	32428	
1152	0	32508	
1153	0	32520	
1154	0	32629	
1155	0	32744	
1156	0	32868	
1157	0	33044	
1158	0	33028	
1159	0	33064	
1160	0	32968	
1161	0	32952	
1162	0	33080	
1163	0	33220	
1164	0	33116	
1165	0	32740	
1166	0	32548	
1167	0	32468	
1168	0	32480	
1169	0	32532	
1170	0	32472	
1171	0	32404	
1172	0	32524	
1173	0	32652	
1174	0	32586	
1175	0	32836	
1176	0	32799	
1177	0	32976	
1178	0	33064	
1179	0	33092	
1180	0	32956	
1181	0	32879	
1182	0	32884	
1183	0	33128	
1184	0	33096	
1185	0	32820	
1186	0	32708	
1187	0	32724	
1188	0	32708	
1189	0	32492	
1190	0	32428	
1191	0	32288	
1192	0	32600	
1193	0	32728	
1194	0	32736	
1195	0	32656	
1196	0	32784	
1197	0	33014	
1198	0	33098	
1199	0	32972	
1200	0	32736	
1201	0	32684	
1202	0	32848	
1203	0	33021	
1204	0	33032	
1205	0	32824	
1206	0	32796	
1207	0	32656	
1208	0	32682	
1209	0	32612	
1210	0	32484	
1211	0	32512	
1212	0	32572	
1213	0	32660	
1214	0	32772	
1215	0	32872	
1216	0	32824	
1217	0	32897	
1218	0	32880	
1219	0	32888	
1220	0	33140	
1221	0	33108	
1222	0	33064	
1223	0	32972	
1224	0	32978	
1225	0	32732	
1226	0	32736	
1227	0	32616	
1228	0	32612	
1229	0	32676	
1230	0	32448	
1231	0	32340	
1232	0	32384	
1233	0	32584	
1234	0	32672	
1235	0	32796	
1236	0	32794	
1237	0	32888	
1238	0	32928	
1239	0	33012	
1240	0	32972	
1241	0	33020	
1242	0	33044	
1243	0	33000	
1244	0	33000	
1245	0	32900	
1246	0	32820	
1247	0	32728	
1248	0	32519	
1249	0	32484	
1250	0	32356	
1251	0	32416	
1252	0	32528	
1253	0	32700	
1254	0	32692	
1255	0	32912	
1256	0	32842	
1257	0	32884	
1258	0	32860	
1259	0	32916	
1260	0	33040	
1261	0	32864	
1262	0	32960	
1263	0	32980	
1264	0	33080	
1265	0	32944	
1266	0	32776	
1267	0	32616	
1268	0	32536	
1269	0	32480	
1270	0	32456	
1271	0	32500	
1272	0	32645	
1273	0	32848	
1274	0	32804	
1275	0	32792	
1276	0	32792	
1277	0	32748	
1278	0	32817	
1279	0	32888	
1280	0	32948	
1281	0	33032	
1282	0	33090	
1283	0	33252	
1284	0	33146	
1285	0	32900	
1286	0	32672	
1287	0	32492	
1288	0	32476	
1289	0	32488	
1290	0	32428	
1291	0	32408	
1292	0	32492	
1293	0	32596	
1294	0	32592	
1295	0	32672	
1296	0	32852	
1297	0	32924	
1298	0	33004	
1299	0	32975	
1300	0	32948	
1301	0	32948	
1302	0	33016	
1303	0	33134	
1304	0	33140	
1305	0	33036	
1306	0	32724	
1307	0	32548	
1308	0	32432	
1309	0	32458	
1310	0	32468	
1311	0	32484	
1312	0	32552	
1313	0	32724	
1314	0	32804	
1315	0	32776	
1316	0	32828	
1317	0	32960	
1318	0	33004	
1319	0	32912	
1320	0	32928	
1321	0	33008	
1322	0	33068	
1323	0	33104	
1324	0	32988	
1325	0	32832	
1326	0	32832	
1327	0	32684	
1328	0	32544	
1329	0	32516	
1330	0	32334	
1331	0	32448	
1332	0	32480	
1333	0	32564	
1334	0	32573	
1335	0	32692	
1336	0	32908	
1337	0	32964	
1338	0	33008	
1339	0	33056	
1340	0	33056	
1341	0	33064	
1342	0	33144	
1343	0	33124	
1344	0	32997	
1345	0	32700	
1346	0	32552	
1347	0	32580	
1348	0	32599	
1349	0	32670	
1350	0	32528	
1351	0	32485	
1352	0	32548	
1353	0	32584	
1354	0	32595	
1355	0	32644	
1356	0	32825	
1357	0	32856	
1358	0	32960	
1359	0	32974	
1360	0	33160	
1361	0	33174	
1362	0	33164	
1363	0	33020	
1364	0	33092	
1365	0	32948	
1366	0	32780	
1367	0	32544	
1368	0	32344	
1369	0	32284	
1370	0	32310	
1371	0	32328	
1372	0	32508	
1373	0	32668	
1374	0	32736	
1375	0	32886	
1376	0	32960	
1377	0	32988	
1378	0	32944	
1379	0	32968	
1380	0	33000	
1381	0	33052	
1382	0	33105	
1383	0	33024	
1384	0	32936	
1385	0	32744	
1386	0	32725	
1387	0	32536	
1388	0	32532	
1389	0	32476	
1390	0	32368	
1391	0	32452	
1392	0	32448	
1393	0	32772	
1394	0	32864	
1395	0	32808	
1396	0	32848	
1397	0	32960	
1398	0	33020	
1399	0	32940	
1400	0	33008	
1401	0	33024	
1402	0	33016	
1403	0	33036	
1404	0	32980	
1405	0	32868	
1406	0	32796	
1407	0	32668	
1408	0	32492	
1409	0	32416	
1410	0	32384	
1411	0	32416	
1412	0	32604	
1413	0	32748	
1414	0	32764	
1415	0	32811	
1416	0	32704	
1417	0	32910	
1418	0	33008	
1419	0	33014	
1420	0	32918	
1421	0	32877	
1422	0	32876	
1423	0	32964	
1424	0	32957	
1425	0	32888	
1426	0	32868	
1427	0	32680	
1428	0	32517	
1429	0	32492	
1430	0	32416	
1431	0	32394	
1432	0	32465	
1433	0	32669	
1434	0	32716	
1435	0	32805	
1436	0	32892	
1437	0	32986	
1438	0	33056	
1439	0	33156	
1440	0	33172	
1441	0	33024	
1442	0	32852	
1443	0	33044	
1444	0	32920	
1445	0	32568	
1446	0	32604	
1447	0	32620	
1448	0	32520	
1449	0	32606	
1450	0	32556	
1451	0	32592	
1452	0	32596	
1453	0	32676	
1454	0	32652	
1455	0	32632	
1456	0	32704	
1457	0	32756	
1458	0	32892	
1459	0	33024	
1460	0	33124	
1461	0	33068	
1462	0	33052	
1463	0	33148	
1464	0	33168	
1465	0	32896	
1466	0	32708	
1467	0	32468	
1468	0	32408	
1469	0	32416	
1470	0	32464	
1471	0	32356	
1472	0	32545	
1473	0	32732	
1474	0	32800	
1475	0	32864	
1476	0	32840	
1477	0	32868	
1478	0	32890	
1479	0	32860	
1480	0	32996	
1481	0	33080	
1482	0	33044	
1483	0	33040	
1484	0	33008	
1485	0	32812	
1486	0	32776	
1487	0	32644	
1488	0	32580	
1489	0	32468	
1490	0	32400	
1491	0	32400	
1492	0	32528	
1493	0	32664	
1494	0	32741	
1495	0	32816	
1496	0	32972	
1497	0	32964	
1498	0	32936	
1499	0	32988	
1500	0	33056	
1501	0	33120	
1502	0	32868	
1503	0	32832	
1504	0	32844	
1505	0	32736	
1506	0	32724	
1507	0	32752	
1508	0	32728	
1509	0	32612	
1510	0	32452	
1511	0	32384	
1512	0	32504	
1513	0	32672	
1514	0	32684	
1515	0	32756	
1516	0	32784	
1517	0	32916	
1518	0	33004	
1519	0	32980	
1520	0	32984	
1521	0	33000	
1522	0	32964	
1523	0	33044	
1524	0	33060	
1525	0	32916	
1526	0	32784	
1527	0	32648	
1528	0	32608	
1529	0	32548	
1530	0	32518	
1531	0	32704	
1532	0	32624	
1533	0	32616	
1534	0	32540	
1535	0	32632	
1536	0	32700	
1537	0	32700	
1538	0	32865	
1539	0	32924	
1540	0	32909	
1541	0	32960	
1542	0	32996	
1543	0	33120	
1544	0	33140	
1545	0	32868	
1546	0	32762	
1547	0	32656	
1548	0	32628	
1549	0	32596	
1550	0	32574	
1551	0	32476	
1552	0	32420	
1553	0	32510	
1554	0	32636	
1555	0	32768	
1556	0	32897	
1557	0	32940	
1558	0	32982	
1559	0	33060	
1560	0	33032	
1561	0	33036	
1562	0	33012	
1563	0	33044	
1564	0	32996	
1565	0	32889	
1566	0	32692	
1567	0	32621	
1568	0	32632	
1569	0	32556	
1570	0	32472	
1571	0	32464	
1572	0	32412	
1573	0	32644	
1574	0	32644	
1575	0	32604	
1576	0	32732	
1577	0	32964	
1578	0	32997	
1579	0	32892	
1580	0	32984	
1581	0	33044	
1582	0	33116	
1583	0	33212	
1584	0	33060	
1585	0	32878	
1586	0	32657	
1587	0	32636	
1588	0	32584	
1589	0	32496	
1590	0	32440	
1591	0	32388	
1592	0	32409	
1593	0	32600	
1594	0	32760	
1595	0	32980	
1596	0	32968	
1597	0	32966	
1598	0	32909	
1599	0	32976	
1600	0	33004	
1601	0	32920	
1602	0	32870	
1603	0	32958	
1604	0	32992	
1605	0	32932	
1606	0	32832	
1607	0	32644	
1608	0	32569	
1609	0	32472	
1610	0	32400	
1611	0	32404	
1612	0	32540	
1613	0	32644	
1614	0	32645	
1615	0	32760	
1616	0	32924	
1617	0	32900	
1618	0	32816	
1619	0	32878	
1620	0	33016	
1621	0	33132	
1622	0	33100	
1623	0	33053	
1624	0	33068	
1625	0	32924	
1626	0	32820	
1627	0	32576	
1628	0	32508	
1629	0	32372	
1630	0	32392	
1631	0	32376	
1632	0	32448	
1633	0	32584	
1634	0	32696	
1635	0	32817	
1636	0	32976	
1637	0	32996	
1638	0	32888	
1639	0	32969	
1640	0	33032	
1641	0	33100	
1642	0	33045	
1643	0	33088	
1644	0	32976	
1645	0	32892	
1646	0	32808	
1647	0	32576	
1648	0	32436	
1649	0	32200	
1650	0	32240	
1651	0	32392	
1652	0	32653	
1653	0	32848	
1654	0	32868	
1655	0	32868	
1656	0	32868	
1657	0	32924	
1658	0	32908	
1659	0	32908	
1660	0	32976	
1661	0	32916	
1662	0	32968	
1663	0	33078	
1664	0	33172	
1665	0	32924	
1666	0	32741	
1667	0	32637	
1668	0	32576	
1669	0	32472	
1670	0	32384	
1671	0	32320	
1672	0	32404	
1673	0	32568	
1674	0	32756	
1675	0	32844	
1676	0	32852	
1677	0	32976	
1678	0	32952	
1679	0	32988	
1680	0	33088	
1681	0	33080	
1682	0	32996	
1683	0	32956	
1684	0	32992	
1685	0	32956	
1686	0	32752	
1687	0	32580	
1688	0	32540	
1689	0	32432	
1690	0	32420	
1691	0	32496	
1692	0	32492	
1693	0	32608	
1694	0	32760	
1695	0	32865	
1696	0	32880	
1697	0	32932	
1698	0	32924	
1699	0	32952	
1700	0	32880	
1701	0	33008	
1702	0	33092	
1703	0	33136	
1704	0	33065	
1705	0	32840	
1706	0	32632	
1707	0	32805	
1708	0	32628	
1709	0	32364	
1710	0	32328	
1711	0	32388	
1712	0	32481	
1713	0	32657	
1714	0	32701	
1715	0	32852	
1716	0	32908	
1717	0	32974	
1718	0	32885	
1719	0	32932	
1720	0	33012	
1721	0	32932	
1722	0	33080	
1723	0	33156	
1724	0	32924	
1725	0	32633	
1726	0	32720	
1727	0	32608	
1728	0	32660	
1729	0	32497	
1730	0	32412	
1731	0	32436	
1732	0	32628	
1733	0	32800	
1734	0	32724	
1735	0	32776	
1736	0	32912	
1737	0	32900	
1738	0	32860	
1739	0	32916	
1740	0	32926	
1741	0	32914	
1742	0	32920	
1743	0	33100	
1744	0	33045	
1745	0	32920	
1746	0	32798	
1747	0	32744	
1748	0	32705	
1749	0	32556	
1750	0	32492	
1751	0	32460	
1752	0	32408	
1753	0	32564	
1754	0	32656	
1755	0	32748	
1756	0	32784	
1757	0	32764	
1758	0	32912	
1759	0	33004	
1760	0	33040	
1761	0	33124	
1762	0	32940	
1763	0	33084	
1764	0	33060	
1765	0	32941	
1766	0	32778	
1767	0	32638	
1768	0	32604	
1769	0	32508	
1770	0	32468	
1771	0	32472	
1772	0	32524	
1773	0	32584	
1774	0	32688	
1775	0	32746	
1776	0	32900	
1777	0	32976	
1778	0	33072	
1779	0	32908	
1780	0	32816	
1781	0	32829	
1782	0	32924	
1783	0	32884	
1784	0	32884	
1785	0	32884	
1786	0	32729	
1787	0	32684	
1788	0	32708	
1789	0	32688	
1790	0	32533	
1791	0	32472	
1792	0	32432	
1793	0	32582	
1794	0	32663	
1795	0	32740	
1796	0	32904	
1797	0	32960	
1798	0	32980	
1799	0	32916	
1800	0	32952	
1801	0	33068	
1802	0	33118	
1803	0	33218	
1804	0	33198	
1805	0	33024	
1806	0	32477	
1807	0	32308	
1808	0	32368	
1809	0	32276	
1810	0	32324	
1811	0	32494	
1812	0	32560	
1813	0	32669	
1814	0	32644	
1815	0	32828	
1816	0	32992	
1817	0	32996	
1818	0	32984	
1819	0	32940	
1820	0	32908	
1821	0	32908	
1822	0	33060	
1823	0	33056	
1824	0	33084	
1825	0	32892	
1826	0	32780	
1827	0	32665	
1828	0	32508	
1829	0	32448	
1830	0	32412	
1831	0	32438	
1832	0	32588	
1833	0	32749	
1834	0	32708	
1835	0	32856	
1836	0	32840	
1837	0	32858	
1838	0	32920	
1839	0	32988	
1840	0	32984	
1841	0	33020	
1842	0	33180	
1843	0	33036	
1844	0	32904	
1845	0	32844	
1846	0	32693	
1847	0	32533	
1848	0	32486	
1849	0	32476	
1850	0	32428	
1851	0	32452	
1852	0	32536	
1853	0	32724	
1854	0	32828	
1855	0	32794	
1856	0	32782	
1857	0	32828	
1858	0	32890	
1859	0	32920	
1860	0	32930	
1861	0	33036	
1862	0	33080	
1863	0	33204	
1864	0	33116	
1865	0	32976	
1866	0	32576	
1867	0	32461	
1868	0	32580	
1869	0	32524	
1870	0	32332	
1871	0	32436	
1872	0	32644	
1873	0	32820	
1874	0	32772	
1875	0	32724	
1876	0	32836	
1877	0	32916	
1878	0	32840	
1879	0	32880	
1880	0	33088	
1881	0	33256	
1882	0	32964	
1883	0	32832	
1884	0	32952	
1885	0	32756	
1886	0	32720	
1887	0	32676	
1888	0	32488	
1889	0	32448	
1890	0	32377	
1891	0	32448	
1892	0	32581	
1893	0	32728	
1894	0	32688	
1895	0	32752	
1896	0	32897	
1897	0	32964	
1898	0	33053	
1899	0	33192	
1900	0	32960	
1901	0	32804	
1902	0	32876	
1903	0	32924	
1904	0	32956	
1905	0	32964	
1906	0	32836	
1907	0	32725	
1908	0	32532	
1909	0	32480	
1910	0	32448	
1911	0	32544	
1912	0	32684	
1913	0	32792	
1914	0	32688	
1915	0	32677	
1916	0	32804	
1917	0	32892	
1918	0	32880	
1919	0	32908	
1920	0	32928	
1921	0	32989	
1922	0	33048	
1923	0	33068	
1924	0	33029	
1925	0	32948	
1926	0	32729	
1927	0	32660	
1928	0	32500	
1929	0	32404	
1930	0	32343	
1931	0	32464	
1932	0	32590	
1933	0	32644	
1934	0	32732	
1935	0	32748	
1936	0	32761	
1937	0	32925	
1938	0	33068	
1939	0	32936	
1940	0	33036	
1941	0	33020	
1942	0	33022	
1943	0	33048	
1944	0	33296	
1945	0	33064	
1946	0	32756	
1947	0	32436	
1948	0	32296	
1949	0	32312	
1950	0	32312	
1951	0	32352	
1952	0	32376	
1953	0	32744	
1954	0	32936	
1955	0	32956	
1956	0	32984	
1957	0	32808	
1958	0	32812	
1959	0	32926	
1960	0	32988	
1961	0	32944	
1962	0	32988	
1963	0	33088	
1964	0	33148	
1965	0	32920	
1966	0	32716	
1967	0	32568	
1968	0	32636	
1969	0	32612	
1970	0	32448	
1971	0	32466	
1972	0	32557	
1973	0	32628	
1974	0	32782	
1975	0	32804	
1976	0	32861	
1977	0	32832	
1978	0	32904	
1979	0	33004	
1980	0	32924	
1981	0	32832	
1982	0	32800	
1983	0	32920	
1984	0	32948	
1985	0	32940	
1986	0	32832	
1987	0	32781	
1988	0	32652	
1989	0	32656	
1990	0	32476	
1991	0	32452	
1992	0	32476	
1993	0	32576	
1994	0	32752	
1995	0	32836	
1996	0	32832	
1997	0	32844	
1998	0	32868	
1999	0	32972	
2000	0	33084	
2001	0	33028	
2002	0	33024	
2003	0	33068	
2004	0	33036	
2005	0	32848	
2006	0	32744	
2007	0	32700	
2008	0	32576	
2009	0	32420	
2010	0	32320	
2011	0	32284	
2012	0	32464	
2013	0	32652	
2014	0	32774	
2015	0	32816	
2016	0	32920	
2017	0	32964	
2018	0	33060	
2019	0	33088	
2020	0	33004	
2021	0	32948	
2022	0	32940	
2023	0	33020	
2024	0	33020	
2025	0	32897	
2026	0	32816	
2027	0	32760	
2028	0	32656	
2029	0	32512	
2030	0	32352	
2031	0	32312	
2032	0	32348	
2033	0	32556	
2034	0	32612	
2035	0	32728	
2036	0	32924	
2037	0	33044	
2038	0	33168	
2039	0	33192	
2040	0	33001	
2041	0	32876	
2042	0	32664	
2043	0	32708	
2044	0	32860	
2045	0	32912	
2046	0	32798	
2047	0	32680	
2048	0	32637	
2049	0	32519	
2050	0	32496	
2051	0	32420	
2052	0	32504	
2053	0	32740	
2054	0	32832	
2055	0	32784	
2056	0	32936	
2057	0	32988	
2058	0	33028	
2059	0	33012	
2060	0	32996	
2061	0	32876	
2062	0	32836	
2063	0	33088	
2064	0	33198	
2065	0	32948	
2066	0	32752	
2067	0	32472	
2068	0	32476	
2069	0	32420	
2070	0	32432	
2071	0	32456	
2072	0	32500	
2073	0	32692	
2074	0	32788	
2075	0	32768	
2076	0	32800	
2077	0	32848	
2078	0	32884	
2079	0	32932	
2080	0	33024	
2081	0	33056	
2082	0	33076	
2083	0	33184	
2084	0	33116	
2085	0	32896	
2086	0	32768	
2087	0	32741	
2088	0	32548	
2089	0	32324	
2090	0	32184	
2091	0	32281	
2092	0	32432	
2093	0	32754	
2094	0	32880	
2095	0	32936	
2096	0	32982	
2097	0	32988	
2098	0	32928	
2099	0	32832	
2100	0	32892	
2101	0	32916	
2102	0	32996	
2103	0	33084	
2104	0	33056	
2105	0	32800	
2106	0	32704	
2107	0	32608	
2108	0	32638	
2109	0	32581	
2110	0	32560	
2111	0	32496	
2112	0	32516	
2113	0	32513	
2114	0	32608	
2115	0	32796	
2116	0	32913	
2117	0	32996	
2118	0	32996	
2119	0	32960	
2120	0	32884	
2121	0	32920	
2122	0	32888	
2123	0	32964	
2124	0	33022	
2125	0	32948	
2126	0	32826	
2127	0	32740	
2128	0	32712	
2129	0	32464	
2130	0	32352	
2131	0	32252	
2132	0	32292	
2133	0	32673	
2134	0	32672	
2135	0	32804	
2136	0	32934	
2137	0	33006	
2138	0	32992	
2139	0	33060	
2140	0	33080	
2141	0	32972	
2142	0	32964	
2143	0	33064	
2144	0	32932	
2145	0	32877	
2146	0	32820	
2147	0	32576	
2148	0	32512	
2149	0	32476	
2150	0	32392	
2151	0	32364	
2152	0	32413	
2153	0	32620	
2154	0	32680	
2155	0	32886	
2156	0	32900	
2157	0	32956	
2158	0	32940	
2159	0	33020	
2160	0	32980	
2161	0	32892	
2162	0	32912	
2163	0	33144	
2164	0	33176	
2165	0	33008	
2166	0	32708	
2167	0	32604	
2168	0	32740	
2169	0	32452	
2170	0	32341	
2171	0	32364	
2172	0	32520	
2173	0	32704	
2174	0	32688	
2175	0	32832	
2176	0	32868	
2177	0	32864	
2178	0	32829	
2179	0	32888	
2180	0	33006	
2181	0	33036	
2182	0	32986	
2183	0	32984	
2184	0	33014	
2185	0	32936	
2186	0	32884	
2187	0	32752	
2188	0	32624	
2189	0	32425	
2190	0	32320	
2191	0	32324	
2192	0	32444	
2193	0	32644	
2194	0	32792	
2195	0	32832	
2196	0	32796	
2197	0	32896	
2198	0	32988	
2199	0	32920	
2200	0	33017	
2201	0	33016	
2202	0	33020	
2203	0	33038	
2204	0	33060	
2205	0	32988	
2206	0	32820	
2207	0	32644	
2208	0	32585	
2209	0	32420	
2210	0	32416	
2211	0	32420	
2212	0	32428	
2213	0	32648	
2214	0	32647	
2215	0	32798	
2216	0	32804	
2217	0	32932	
2218	0	32832	
2219	0	33020	
2220	0	33180	
2221	0	33076	
2222	0	33038	
2223	0	32796	
2224	0	32774	
2225	0	32701	
2226	0	32756	
2227	0	32824	
2228	0	32888	
2229	0	32596	
2230	0	32420	
2231	0	32316	
2232	0	32392	
2233	0	32712	
2234	0	32788	
2235	0	32924	
2236	0	32988	
2237	0	32960	
2238	0	32814	
2239	0	32833	
2240	0	32960	
2241	0	32969	
2242	0	33092	
2243	0	33072	
2244	0	33032	
2245	0	32972	
2246	0	32808	
2247	0	32734	
2248	0	32616	
2249	0	32504	
2250	0	32440	
2251	0	32466	
2252	0	32544	
2253	0	32720	
2254	0	32668	
2255	0	32840	
2256	0	32812	
2257	0	32704	
2258	0	32752	
2259	0	32900	
2260	0	33000	
2261	0	32940	
2262	0	33004	
2263	0	33036	
2264	0	32992	
2265	0	32972	
2266	0	32860	
2267	0	32628	
2268	0	32632	
2269	0	32511	
2270	0	32280	
2271	0	32320	
2272	0	32416	
2273	0	32708	
2274	0	32732	
2275	0	32740	
2276	0	32796	
2277	0	32932	
2278	0	32948	
2279	0	32968	
2280	0	32988	
2281	0	32968	
2282	0	32948	
2283	0	33140	
2284	0	33144	
2285	0	33012	
2286	0	32740	
2287	0	32580	
2288	0	32516	
2289	0	32452	
2290	0	32464	
2291	0	32461	
2292	0	32520	
2293	0	32636	
2294	0	32736	
2295	0	32956	
2296	0	33164	
2297	0	33080	
2298	0	32876	
2299	0	32756	
2300	0	32773	
2301	0	32910	
2302	0	32868	
2303	0	32892	
2304	0	32984	
2305	0	32932	
2306	0	32812	
2307	0	32732	
2308	0	32608	
2309	0	32470	
2310	0	32396	
2311	0	32426	
2312	0	32456	
2313	0	32652	
2314	0	32728	
2315	0	32860	
2316	0	32884	
2317	0	32868	
2318	0	32932	
2319	0	32996	
2320	0	33052	
2321	0	33076	
2322	0	33068	
2323	0	33134	
2324	0	33134	
2325	0	32980	
2326	0	32636	
2327	0	32436	
2328	0	32536	
2329	0	32420	
2330	0	32372	
2331	0	32359	
2332	0	32516	
2333	0	32764	
2334	0	32820	
2335	0	32908	
2336	0	32796	
2337	0	32660	
2338	0	32860	
2339	0	32925	
2340	0	33004	
2341	0	33072	
2342	0	33096	
2343	0	33120	
2344	0	33060	
2345	0	32908	
2346	0	32660	
2347	0	32572	
2348	0	32464	
2349	0	32469	
2350	0	32461	
2351	0	32552	
2352	0	32480	
2353	0	32613	
2354	0	32680	
2355	0	32768	
2356	0	32972	
2357	0	32904	
2358	0	32914	
2359	0	32804	
2360	0	32856	
2361	0	32892	
2362	0	33124	
2363	0	33180	
2364	0	33132	
2365	0	32972	
2366	0	32792	
2367	0	32600	
2368	0	32524	
2369	0	32528	
2370	0	32400	
2371	0	32377	
2372	0	32344	
2373	0	32652	
2374	0	32756	
2375	0	32808	
2376	0	32848	
2377	0	33004	
2378	0	33124	
2379	0	33016	
2380	0	32908	
2381	0	32945	
2382	0	32968	
2383	0	33040	
2384	0	33008	
2385	0	32924	
2386	0	32728	
2387	0	32656	
2388	0	32656	
2389	0	32456	
2390	0	32412	
2391	0	32366	
2392	0	32572	
2393	0	32708	
2394	0	32784	
2395	0	32697	
2396	0	32800	
2397	0	32864	
2398	0	32872	
2399	0	32908	
2400	0	32900	
2401	0	32948	
2402	0	33088	
2403	0	33053	
2404	0	33036	
2405	0	32913	
2406	0	32781	
2407	0	32696	
2408	0	32752	
2409	0	32564	
2410	0	32412	
2411	0	32352	
2412	0	32320	
2413	0	32496	
2414	0	32724	
2415	0	32800	
2416	0	32788	
2417	0	32996	
2418	0	32968	
2419	0	32916	
2420	0	32804	
2421	0	32940	
2422	0	33180	
2423	0	33156	
2424	0	33228	
2425	0	33028	
2426	0	32844	
2427	0	32580	
2428	0	32505	
2429	0	32412	
2430	0	32364	
2431	0	32520	
2432	0	32584	
2433	0	32636	
2434	0	32636	
2435	0	32586	
2436	0	32724	
2437	0	32880	
2438	0	32985	
2439	0	32945	
2440	0	33060	
2441	0	33108	
2442	0	33104	
2443	0	33044	
2444	0	33080	
2445	0	32928	
2446	0	32872	
2447	0	32917	
2448	0	32732	
2449	0	32356	
2450	0	32160	
2451	0	32312	
2452	0	32388	
2453	0	32476	
2454	0	32652	
2455	0	32688	
2456	0	32824	
2457	0	33062	
2458	0	33088	
2459	0	32960	
2460	0	32948	
2461	0	32892	
2462	0	33024	
2463	0	33080	
2464	0	33060	
2465	0	33016	
2466	0	32860	
2467	0	32746	
2468	0	32712	
2469	0	32516	
2470	0	32200	
2471	0	32256	
2472	0	32580	
2473	0	32560	
2474	0	32476	
2475	0	32598	
2476	0	32904	
2477	0	33056	
2478	0	33020	
2479	0	32928	
2480	0	32916	
2481	0	32992	
2482	0	33020	
2483	0	32976	
2484	0	33032	
2485	0	32860	
2486	0	32797	
2487	0	32624	
2488	0	32644	
2489	0	32552	
2490	0	32556	
2491	0	32560	
2492	0	32556	
2493	0	32652	
2494	0	32688	
2495	0	32768	
2496	0	32768	
2497	0	32880	
2498	0	32928	
2499	0	32944	
2500	0	33012	
2501	0	33073	
2502	0	33048	
2503	0	32940	
2504	0	33016	
2505	0	32887	
2506	0	32692	
2507	0	32688	
2508	0	32644	
2509	0	32636	
2510	0	32460	
2511	0	32424	
2512	0	32384	
2513	0	32480	
2514	0	32652	
2515	0	32770	
2516	0	32885	
2517	0	32984	
2518	0	32972	
2519	0	33060	
2520	0	32952	
2521	0	32884	
2522	0	32836	
2523	0	32960	
2524	0	32984	
2525	0	32936	
2526	0	32932	
2527	0	32760	
2528	0	32676	
2529	0	32552	
2530	0	32492	
2531	0	32404	
2532	0	32440	
2533	0	32704	
2534	0	32792	
2535	0	32613	
2536	0	32804	
2537	0	32902	
2538	0	32920	
2539	0	32962	
2540	0	32996	
2541	0	32992	
2542	0	33009	
2543	0	33004	
2544	0	32844	
2545	0	32800	
2546	0	32756	
2547	0	32673	
2548	0	32697	
2549	0	32724	
2550	0	32580	
2551	0	32572	
2552	0	32493	
2553	0	32584	
2554	0	32636	
2555	0	32640	
2556	0	32672	
2557	0	32756	
2558	0	32940	
2559	0	32977	
2560	0	33012	
2561	0	33016	
2562	0	32996	
2563	0	33060	
2564	0	33008	
2565	0	33088	
2566	0	32812	
2567	0	32664	
2568	0	32552	
2569	0	32576	
2570	0	32524	
2571	0	32388	
2572	0	32416	
2573	0	32560	
2574	0	32720	
2575	0	32852	
2576	0	32952	
2577	0	32929	
2578	0	32860	
2579	0	32856	
2580	0	33004	
2581	0	32952	
2582	0	33020	
2583	0	33076	
2584	0	33054	
2585	0	32876	
2586	0	32792	
2587	0	32632	
2588	0	32664	
2589	0	32644	
2590	0	32520	
2591	0	32352	
2592	0	32340	
2593	0	32461	
2594	0	32720	
2595	0	32788	
2596	0	32812	
2597	0	32796	
2598	0	32880	
2599	0	33068	
2600	0	33016	
2601	0	33072	
2602	0	33024	
2603	0	33020	
2604	0	33092	
2605	0	33004	
2606	0	32916	
2607	0	32740	
2608	0	32685	
2609	0	32367	
2610	0	32376	
2611	0	32284	
2612	0	32188	
2613	0	32457	
2614	0	32704	
2615	0	32824	
2616	0	32872	
2617	0	32932	
2618	0	32942	
2619	0	33038	
2620	0	33064	
2621	0	33020	
2622	0	32992	
2623	0	33076	
2624	0	33056	
2625	0	33068	
2626	0	32892	
2627	0	32700	
2628	0	32550	
2629	0	32468	
2630	0	32301	
2631	0	32300	
2632	0	32460	
2633	0	32628	
2634	0	32712	
2635	0	32952	
2636	0	32948	
2637	0	32896	
2638	0	32860	
2639	0	32820	
2640	0	32944	
2641	0	33052	
2642	0	33160	
2643	0	33040	
2644	0	32804	
2645	0	32788	
2646	0	32649	
2647	0	32636	
2648	0	32604	
2649	0	32576	
2650	0	32560	
2651	0	32494	
2652	0	32484	
2653	0	32640	
2654	0	32776	
2655	0	32884	
2656	0	32824	
2657	0	32936	
2658	0	32948	
2659	0	33032	
2660	0	33061	
2661	0	32996	
2662	0	33017	
2663	0	32920	
2664	0	32928	
2665	0	32822	
2666	0	32680	
2667	0	32688	
2668	0	32596	
2669	0	32496	
2670	0	32492	
2671	0	32528	
2672	0	32592	
2673	0	32856	
2674	0	32904	
2675	0	32728	
2676	0	32704	
2677	0	32764	
2678	0	32852	
2679	0	32938	
2680	0	32950	
2681	0	32956	
2682	0	32888	
2683	0	32976	
2684	0	33052	
2685	0	32900	
2686	0	32752	
2687	0	32768	
2688	0	32704	
2689	0	32612	
2690	0	32520	
2691	0	32456	
2692	0	32448	
2693	0	32524	
2694	0	32680	
2695	0	32820	
2696	0	32708	
2697	0	32664	
2698	0	32708	
2699	0	32876	
2700	0	33004	
2701	0	33129	
2702	0	33156	
2703	0	33172	
2704	0	33208	
2705	0	32996	
2706	0	32740	
2707	0	32620	
2708	0	32516	
2709	0	32416	
2710	0	32360	
2711	0	32340	
2712	0	32388	
2713	0	32636	
2714	0	32840	
2715	0	32910	
2716	0	32912	
2717	0	32873	
2718	0	32832	
2719	0	32893	
2720	0	32974	
2721	0	32940	
2722	0	32900	
2723	0	33009	
2724	0	33092	
2725	0	33040	
2726	0	32904	
2727	0	32704	
2728	0	32697	
2729	0	32576	
2730	0	32508	
2731	0	32336	
2732	0	32240	
2733	0	32508	
2734	0	32700	
2735	0	32844	
2736	0	32936	
2737	0	33006	
2738	0	32900	
2739	0	32877	
2740	0	32928	
2741	0	32984	
2742	0	33008	
2743	0	33072	
2744	0	33084	
2745	0	32976	
2746	0	32704	
2747	0	32584	
2748	0	32668	
2749	0	32540	
2750	0	32404	
2751	0	32388	
2752	0	32445	
2753	0	32612	
2754	0	32708	
2755	0	32764	
2756	0	32844	
2757	0	32766	
2758	0	32865	
2759	0	33076	
2760	0	33072	
2761	0	33180	
2762	0	33088	
2763	0	33040	
2764	0	32884	
2765	0	32820	
2766	0	32804	
2767	0	32620	
2768	0	32612	
2769	0	32528	
2770	0	32384	
2771	0	32384	
2772	0	32472	
2773	0	32652	
2774	0	32804	
2775	0	32854	
2776	0	33000	
2777	0	32864	
2778	0	32792	
2779	0	32878	
2780	0	32956	
2781	0	33008	
2782	0	32892	
2783	0	32889	
2784	0	33028	
2785	0	32920	
2786	0	32820	
2787	0	32768	
2788	0	32712	
2789	0	32469	
2790	0	32284	
2791	0	32408	
2792	0	32496	
2793	0	32712	
2794	0	32728	
2795	0	32768	
2796	0	32844	
2797	0	32980	
2798	0	32996	
2799	0	32956	
2800	0	33098	
2801	0	32952	
2802	0	32886	
2803	0	32868	
2804	0	32925	
2805	0	32985	
2806	0	32924	
2807	0	32781	
2808	0	32657	
2809	0	32516	
2810	0	32385	
2811	0	32336	
2812	0	32356	
2813	0	32624	
2814	0	32794	
2815	0	32756	
2816	0	32716	
2817	0	32836	
2818	0	33040	
2819	0	33028	
2820	0	33096	
2821	0	33028	
2822	0	33008	
2823	0	33020	
2824	0	33032	
2825	0	32984	
2826	0	32876	
2827	0	32668	
2828	0	32460	
2829	0	32420	
2830	0	32416	
2831	0	32361	
2832	0	32485	
2833	0	32684	
2834	0	32700	
2835	0	32712	
2836	0	32836	
2837	0	32860	
2838	0	32812	
2839	0	32972	
2840	0	33080	
2841	0	33046	
2842	0	33268	
2843	0	33064	
2844	0	32892	
2845	0	32808	
2846	0	32813	
2847	0	32672	
2848	0	32404	
2849	0	32356	
2850	0	32276	
2851	0	32404	
2852	0	32476	
2853	0	32700	
2854	0	32728	
2855	0	32812	
2856	0	32864	
2857	0	32921	
2858	0	32904	
2859	0	32824	
2860	0	32864	
2861	0	33012	
2862	0	33249	
2863	0	33256	
2864	0	33024	
2865	0	32768	
2866	0	32852	
2867	0	32676	
2868	0	32652	
2869	0	32480	
2870	0	32378	
2871	0	32292	
2872	0	32341	
2873	0	32553	
2874	0	32598	
2875	0	32708	
2876	0	32870	
2877	0	32974	
2878	0	32996	
2879	0	32996	
2880	0	33056	
2881	0	33032	
2882	0	32960	
2883	0	32980	
2884	0	32976	
2885	0	32894	
2886	0	32792	
2887	0	32752	
2888	0	32741	
2889	0	32708	
2890	0	32576	
2891	0	32428	
2892	0	32372	
2893	0	32476	
2894	0	32596	
2895	0	32700	
2896	0	32792	
2897	0	32853	
2898	0	32920	
2899	0	32984	
2900	0	32968	
2901	0	32952	
2902	0	32936	
2903	0	33000	
2904	0	33028	
2905	0	33040	
2906	0	32900	
2907	0	32688	
2908	0	32633	
2909	0	32524	
2910	0	32388	
2911	0	32440	
2912	0	32428	
2913	0	32580	
2914	0	32640	
2915	0	32804	
2916	0	32992	
2917	0	32872	
2918	0	32910	
2919	0	32909	
2920	0	32984	
2921	0	32992	
2922	0	33072	
2923	0	33136	
2924	0	33076	
2925	0	32916	
2926	0	32780	
2927	0	32717	
2928	0	32709	
2929	0	32576	
2930	0	32485	
2931	0	32320	
2932	0	32368	
2933	0	32430	
2934	0	32680	
2935	0	32828	
2936	0	32832	
2937	0	32829	
2938	0	32890	
2939	0	32940	
2940	0	32912	
2941	0	32956	
2942	0	32864	
2943	0	33056	
2944	0	33080	
2945	0	32956	
2946	0	32885	
2947	0	32848	
2948	0	32616	
2949	0	32476	
2950	0	32576	
2951	0	32404	
2952	0	32400	
2953	0	32640	
2954	0	32720	
2955	0	32848	
2956	0	32884	
2957	0	32848	
2958	0	32880	
2959	0	32816	
2960	0	32868	
2961	0	33012	
2962	0	33012	
2963	0	33056	
2964	0	33004	
2965	0	32980	
2966	0	32850	
2967	0	32668	
2968	0	32544	
2969	0	32469	
2970	0	32404	
2971	0	32366	
2972	0	32468	
2973	0	32704	
2974	0	32796	
2975	0	32824	
2976	0	32872	
2977	0	32836	
2978	0	32932	
2979	0	32940	
2980	0	32952	
2981	0	33004	
2982	0	32996	
2983	0	33013	
2984	0	33012	
2985	0	33041	
2986	0	32860	
2987	0	32628	
2988	0	32581	
2989	0	32600	
2990	0	32510	
2991	0	32348	
2992	0	32348	
2993	0	32341	
2994	0	32620	
2995	0	32744	
2996	0	32836	
2997	0	32940	
2998	0	32913	
2999	0	32926	
3000	0	33032	
3001	0	32976	
3002	0	33004	
3003	0	33052	
3004	0	33040	
3005	0	33012	
3006	0	32942	
3007	0	32900	
3008	0	32780	
3009	0	32568	
3010	0	32352	
3011	0	32220	
3012	0	32292	
3013	0	32534	
3014	0	32629	
3015	0	32776	
3016	0	32800	
3017	0	32964	
3018	0	32980	
3019	0	33076	
3020	0	33020	
3021	0	33064	
3022	0	33052	
3023	0	32964	
3024	0	32952	
3025	0	32860	
3026	0	32704	
3027	0	32724	
3028	0	32700	
3029	0	32548	
3030	0	32416	
3031	0	32208	
3032	0	32308	
3033	0	32576	
3034	0	32760	
3035	0	32796	
3036	0	32876	
3037	0	32912	
3038	0	32969	
3039	0	32928	
3040	0	32996	
3041	0	33020	
3042	0	33016	
3043	0	33100	
3044	0	33144	
3045	0	33012	
3046	0	32864	
3047	0	32836	
3048	0	32657	
3049	0	32420	
3050	0	32352	
3051	0	32374	
3052	0	32412	
3053	0	32584	
3054	0	32636	
3055	0	32816	
3056	0	32864	
3057	0	33012	
3058	0	33040	
3059	0	32962	
3060	0	32884	
3061	0	32852	
3062	0	32888	
3063	0	33089	
3064	0	33056	
3065	0	32964	
3066	0	32800	
3067	0	32688	
3068	0	32660	
3069	0	32524	
3070	0	32472	
3071	0	32344	
3072	0	32356	
3073	0	32568	
3074	0	32716	
3075	0	32752	
3076	0	32896	
3077	0	32972	
3078	0	32886	
3079	0	32956	
3080	0	32972	
3081	0	33028	
3082	0	32984	
3083	0	33041	
3084	0	33072	
3085	0	32924	
3086	0	32856	
3087	0	32680	
3088	0	32556	
3089	0	32492	
3090	0	32504	
3091	0	32332	
3092	0	32424	
3093	0	32612	
3094	0	32636	
3095	0	32820	
3096	0	32842	
3097	0	32888	
3098	0	32896	
3099	0	32960	
3100	0	32956	
3101	0	32964	
3102	0	32944	
3103	0	32948	
3104	0	33138	
3105	0	33224	
3106	0	32932	
3107	0	32644	
3108	0	32604	
3109	0	32592	
3110	0	32452	
3111	0	32280	
3112	0	32304	
3113	0	32468	
3114	0	32672	
3115	0	32812	
3116	0	33004	
3117	0	33076	
3118	0	32984	
3119	0	32816	
3120	0	32784	
3121	0	32956	
3122	0	33036	
3123	0	33004	
3124	0	33004	
3125	0	32925	
3126	0	32772	
3127	0	32664	
3128	0	32684	
3129	0	32709	
3130	0	32624	
3131	0	32440	
3132	0	32408	
3133	0	32568	
3134	0	32588	
3135	0	32736	
3136	0	32804	
3137	0	32812	
3138	0	32888	
3139	0	32948	
3140	0	32925	
3141	0	33064	
3142	0	33156	
3143	0	33108	
3144	0	33205	
3145	0	32988	
3146	0	32697	
3147	0	32549	
3148	0	32620	
3149	0	32612	
3150	0	32397	
3151	0	32236	
3152	0	32288	
3153	0	32484	
3154	0	32640	
3155	0	32952	
3156	0	32880	
3157	0	32804	
3158	0	32876	
3159	0	32996	
3160	0	33084	
3161	0	33046	
3162	0	33024	
3163	0	33024	
3164	0	33008	
3165	0	33080	
3166	0	32984	
3167	0	32596	
3168	0	32444	
3169	0	32320	
3170	0	32324	
3171	0	32389	
3172	0	32420	
3173	0	32580	
3174	0	32892	
3175	0	32933	
3176	0	32984	
3177	0	32976	
3178	0	33061	
3179	0	32860	
3180	0	32868	
3181	0	32908	
3182	0	32904	
3183	0	32972	
3184	0	33084	
3185	0	33076	
3186	0	32908	
3187	0	32614	
3188	0	32560	
3189	0	32440	
3190	0	32520	
3191	0	32512	
3192	0	32580	
3193	0	32628	
3194	0	32600	
3195	0	32704	
3196	0	32768	
3197	0	32780	
3198	0	32896	
3199	0	32889	
3200	0	32992	
3201	0	33060	
3202	0	33080	
3203	0	33174	
3204	0	33012	
3205	0	32980	
3206	0	32772	
3207	0	32736	
3208	0	32656	
3209	0	32500	
3210	0	32328	
3211	0	32324	
3212	0	32372	
3213	0	32557	
3214	0	32664	
3215	0	32744	
3216	0	32836	
3217	0	32874	
3218	0	32968	
3219	0	33056	
3220	0	33012	
3221	0	33064	
3222	0	33105	
3223	0	33144	
3224	0	33124	
3225	0	33004	
3226	0	32896	
3227	0	32748	
3228	0	32590	
3229	0	32480	
3230	0	32421	
3231	0	32432	
3232	0	32176	
3233	0	32164	
3234	0	32600	
3235	0	32756	
3236	0	32716	
3237	0	32844	
3238	0	33144	
3239	0	33029	
3240	0	32864	
3241	0	32980	
3242	0	33028	
3243	0	33104	
3244	0	32994	
3245	0	33014	
3246	0	32860	
3247	0	32756	
3248	0	32698	
3249	0	32628	
3250	0	32480	
3251	0	32448	
3252	0	32661	
3253	0	32624	
3254	0	32696	
3255	0	32708	
3256	0	32749	
3257	0	32660	
3258	0	32736	
3259	0	32876	
3260	0	32918	
3261	0	33004	
3262	0	33030	
3263	0	33028	
3264	0	32996	
3265	0	33064	
3266	0	32992	
3267	0	32660	
3268	0	32536	
3269	0	32436	
3270	0	32384	
3271	0	32557	
3272	0	32576	
3273	0	32600	
3274	0	32588	
3275	0	32748	
3276	0	32888	
3277	0	32940	
3278	0	32996	
3279	0	33046	
3280	0	32937	
3281	0	32940	
3282	0	33000	
3283	0	33058	
3284	0	32996	
3285	0	32808	
3286	0	32724	
3287	0	32700	
3288	0	32636	
3289	0	32516	
3290	0	32424	
3291	0	32382	
3292	0	32412	
3293	0	32568	
3294	0	32752	
3295	0	32940	
3296	0	32956	
3297	0	32860	
3298	0	32788	
3299	0	32816	
3300	0	32944	
3301	0	33016	
3302	0	33040	
3303	0	33240	
3304	0	33148	
3305	0	32944	
3306	0	32653	
3307	0	32572	
3308	0	32537	
3309	0	32532	
3310	0	32516	
3311	0	32440	
3312	0	32364	
3313	0	32552	
3314	0	32604	
3315	0	32668	
3316	0	32812	
3317	0	32856	
3318	0	33092	
3319	0	33016	
3320	0	32928	
3321	0	32856	
3322	0	32822	
3323	0	32960	
3324	0	33124	
3325	0	32992	
3326	0	32864	
3327	0	32772	
3328	0	32648	
3329	0	32576	
3330	0	32440	
3331	0	32416	
3332	0	32416	
3333	0	32556	
3334	0	32696	
3335	0	32748	
3336	0	32860	
3337	0	32900	
3338	0	33008	
3339	0	33096	
3340	0	33085	
3341	0	32950	
3342	0	32884	
3343	0	32852	
3344	0	33016	
3345	0	33188	
3346	0	32900	
3347	0	32732	
3348	0	32628	
3349	0	32520	
3350	0	32412	
3351	0	32220	
3352	0	32320	
3353	0	32524	
3354	0	32765	
3355	0	32916	
3356	0	32919	
3357	0	32876	
3358	0	32804	
3359	0	32832	
3360	0	33000	
3361	0	33045	
3362	0	32972	
3363	0	32936	
3364	0	33024	
3365	0	32900	
3366	0	32820	
3367	0	32688	
3368	0	32606	
3369	0	32532	
3370	0	32504	
3371	0	32452	
3372	0	32448	
3373	0	32596	
3374	0	32736	
3375	0	32804	
3376	0	32878	
3377	0	32864	
3378	0	32908	
3379	0	32852	
3380	0	33016	
3381	0	32940	
3382	0	32980	
3383	0	33104	
3384	0	33256	
3385	0	33080	
3386	0	32920	
3387	0	32680	
3388	0	32660	
3389	0	32472	
3390	0	32289	
3391	0	32344	
3392	0	32480	
3393	0	32568	
3394	0	32608	
3395	0	32752	
3396	0	32800	
3397	0	32920	
3398	0	32980	
3399	0	32954	
3400	0	32968	
3401	0	32968	
3402	0	32956	
3403	0	33060	
3404	0	32981	
3405	0	32956	
3406	0	32896	
3407	0	32668	
3408	0	32624	
3409	0	32516	
3410	0	32424	
3411	0	32408	
3412	0	32516	
3413	0	32528	
3414	0	32605	
3415	0	32764	
3416	0	32876	
3417	0	32984	
3418	0	32876	
3419	0	32993	
3420	0	33032	
3421	0	32992	
3422	0	32929	
3423	0	33128	
3424	0	33276	
3425	0	33076	
3426	0	32764	
3427	0	32552	
3428	0	32428	
3429	0	32420	
3430	0	32432	
3431	0	32484	
3432	0	32332	
3433	0	32476	
3434	0	32704	
3435	0	32748	
3436	0	32840	
3437	0	32908	
3438	0	32917	
3439	0	32960	
3440	0	33056	
3441	0	33048	
3442	0	33062	
3443	0	32984	
3444	0	32976	
3445	0	32932	
3446	0	32912	
3447	0	32741	
3448	0	32600	
3449	0	32452	
3450	0	32372	
3451	0	32496	
3452	0	32505	
3453	0	32614	
3454	0	32685	
3455	0	32748	
3456	0	32932	
3457	0	32869	
3458	0	32992	
3459	0	32933	
3460	0	32988	
3461	0	32968	
3462	0	32900	
3463	0	33001	
3464	0	33022	
3465	0	32936	
3466	0	32728	
3467	0	32636	
3468	0	32544	
3469	0	32500	
3470	0	32620	
3471	0	32688	
3472	0	32748	
3473	0	32680	
3474	0	32624	
3475	0	32612	
3476	0	32612	
3477	0	32640	
3478	0	32776	
3479	0	32832	
3480	0	32944	
3481	0	33028	
3482	0	33112	
3483	0	33196	
3484	0	33126	
3485	0	33052	
3486	0	32964	
3487	0	32629	
3488	0	32612	
3489	0	32420	
3490	0	32344	
3491	0	32328	
3492	0	32292	
3493	0	32476	
3494	0	32724	
3495	0	32784	
3496	0	32976	
3497	0	32996	
3498	0	32896	
3499	0	32924	
3500	0	32964	
3501	0	33076	
3502	0	33076	
3503	0	33144	
3504	0	33116	
3505	0	32872	
3506	0	32813	
3507	0	32752	
3508	0	32684	
3509	0	32498	
3510	0	32420	
3511	0	32340	
3512	0	32356	
3513	0	32532	
3514	0	32644	
3515	0	32736	
3516	0	32834	
3517	0	32884	
3518	0	32965	
3519	0	33116	
3520	0	33148	
3521	0	33076	
3522	0	32895	
3523	0	32909	
3524	0	33008	
3525	0	32952	
3526	0	32756	
3527	0	32620	
3528	0	32612	
3529	0	32504	
3530	0	32453	
3531	0	32414	
3532	0	32428	
3533	0	32576	
3534	0	32740	
3535	0	32940	
3536	0	32920	
3537	0	32936	
3538	0	32900	
3539	0	32853	
3540	0	32956	
3541	0	33092	
3542	0	33028	
3543	0	32964	
3544	0	32828	
3545	0	32932	
3546	0	32784	
3547	0	32686	
3548	0	32788	
3549	0	32592	
3550	0	32420	
3551	0	32316	
3552	0	32374	
3553	0	32524	
3554	0	32670	
3555	0	32764	
3556	0	32920	
3557	0	32961	
3558	0	33004	
3559	0	33060	
3560	0	32984	
3561	0	32944	
3562	0	32820	
3563	0	33072	
3564	0	33116	
3565	0	32948	
3566	0	32744	
3567	0	32524	
3568	0	32436	
3569	0	32448	
3570	0	32372	
3571	0	32412	
3572	0	32536	
3573	0	32743	
3574	0	32876	
3575	0	32916	
3576	0	32976	
3577	0	32924	
3578	0	32956	
3579	0	32968	
3580	0	32984	
3581	0	33028	
3582	0	33004	
3583	0	32972	
3584	0	32836	
3585	0	32780	
3586	0	32774	
3587	0	32765	
3588	0	32677	
3589	0	32628	
3590	0	32492	
3591	0	32408	
3592	0	32344	
3593	0	32612	
3594	0	32752	
3595	0	32704	
3596	0	32760	
3597	0	32822	
3598	0	32876	
3599	0	32989	
3600	0	33012	
3601	0	33076	
3602	0	32992	
3603	0	32948	
3604	0	32996	
3605	0	32948	
3606	0	32888	
3607	0	32724	
3608	0	32692	
3609	0	32592	
3610	0	32538	
3611	0	32340	
3612	0	32304	
3613	0	32433	
3614	0	32708	
3615	0	32840	
3616	0	32869	
3617	0	32928	
3618	0	32928	
3619	0	32960	
3620	0	32936	
3621	0	32976	
3622	0	33092	
3623	0	33071	
3624	0	32994	
3625	0	32968	
3626	0	32876	
3627	0	32672	
3628	0	32564	
3629	0	32424	
3630	0	32396	
3631	0	32398	
3632	0	32500	
3633	0	32608	
3634	0	32686	
3635	0	32736	
3636	0	32916	
3637	0	32920	
3638	0	32956	
3639	0	32992	
3640	0	33006	
3641	0	33048	
3642	0	32984	
3643	0	32996	
3644	0	33060	
3645	0	33013	
3646	0	32760	
3647	0	32700	
3648	0	32572	
3649	0	32452	
3650	0	32436	
3651	0	32357	
3652	0	32428	
3653	0	32556	
3654	0	32744	
3655	0	32808	
3656	0	32890	
3657	0	32908	
3658	0	32940	
3659	0	32908	
3660	0	32910	
3661	0	32948	
3662	0	32996	
3663	0	33032	
3664	0	33156	
3665	0	33032	
3666	0	32820	
3667	0	32596	
3668	0	32548	
3669	0	32504	
3670	0	32440	
3671	0	32428	
3672	0	32468	
3673	0	32584	
3674	0	32688	
3675	0	32794	
3676	0	32868	
3677	0	32868	
3678	0	32920	
3679	0	32956	
3680	0	33036	
3681	0	33013	
3682	0	33052	
3683	0	33016	
3684	0	32880	
3685	0	32976	
3686	0	32988	
3687	0	32784	
3688	0	32564	
3689	0	32408	
3690	0	32340	
3691	0	32428	
3692	0	32572	
3693	0	32676	
3694	0	32556	
3695	0	32604	
3696	0	32748	
3697	0	32869	
3698	0	32852	
3699	0	32940	
3700	0	33052	
3701	0	33112	
3702	0	33136	
3703	0	33209	
3704	0	33004	
3705	0	32764	
3706	0	32654	
3707	0	32676	
3708	0	32596	
3709	0	32491	
3710	0	32388	
3711	0	32390	
3712	0	32456	
3713	0	32688	
3714	0	32918	
3715	0	32840	
3716	0	32744	
3717	0	32812	
3718	0	32940	
3719	0	32974	
3720	0	33028	
3721	0	33028	
3722	0	32916	
3723	0	33000	
3724	0	32942	
3725	0	32816	
3726	0	32764	
3727	0	32789	
3728	0	32652	
3729	0	32496	
3730	0	32464	
3731	0	32448	
3732	0	32384	
3733	0	32512	
3734	0	32714	
3735	0	32780	
3736	0	32760	
3737	0	32868	
3738	0	32870	
3739	0	32952	
3740	0	32984	
3741	0	33080	
3742	0	33068	
3743	0	32936	
3744	0	32997	
3745	0	32940	
3746	0	32796	
3747	0	32716	
3748	0	32598	
3749	0	32529	
3750	0	32600	
3751	0	32592	
3752	0	32504	
3753	0	32497	
3754	0	32628	
3755	0	32652	
3756	0	32840	
3757	0	33024	
3758	0	32997	
3759	0	33008	
3760	0	33020	
3761	0	32996	
3762	0	32988	
3763	0	32952	
3764	0	32880	
3765	0	33008	
3766	0	32924	
3767	0	32684	
3768	0	32660	
3769	0	32520	
3770	0	32448	
3771	0	32292	
3772	0	32348	
3773	0	32496	
3774	0	32656	
3775	0	32768	
3776	0	32848	
3777	0	32884	
3778	0	32928	
3779	0	33008	
3780	0	33000	
3781	0	33053	
3782	0	32944	
3783	0	32964	
3784	0	33180	
3785	0	33152	
3786	0	32864	
3787	0	32648	
3788	0	32692	
3789	0	32548	
3790	0	32324	
3791	0	32076	
3792	0	32196	
3793	0	32536	
3794	0	32724	
3795	0	32700	
3796	0	32821	
3797	0	32940	
3798	0	33132	
3799	0	33324	
3800	0	33164	
3801	0	32884	
3802	0	32732	
3803	0	32876	
3804	0	33005	
3805	0	33056	
3806	0	33028	
3807	0	32752	
3808	0	32652	
3809	0	32436	
3810	0	32260	
3811	0	32309	
3812	0	32428	
3813	0	32637	
3814	0	32764	
3815	0	32780	
3816	0	32792	
3817	0	32856	
3818	0	32944	
3819	0	32908	
3820	0	32936	
3821	0	33092	
3822	0	33120	
3823	0	33168	
3824	0	33108	
3825	0	32872	
3826	0	32724	
3827	0	32636	
3828	0	32750	
3829	0	32629	
3830	0	32504	
3831	0	32304	
3832	0	32397	
3833	0	32516	
3834	0	32612	
3835	0	32718	
3836	0	32840	
3837	0	33044	
3838	0	33040	
3839	0	33024	
3840	0	32892	
3841	0	32816	
3842	0	32820	
3843	0	33000	
3844	0	33022	
3845	0	32973	
3846	0	32804	
3847	0	32660	
3848	0	32638	
3849	0	32568	
3850	0	32444	
3851	0	32392	
3852	0	32484	
3853	0	32544	
3854	0	32736	
3855	0	32788	
3856	0	32828	
3857	0	32920	
3858	0	32856	
3859	0	32924	
3860	0	32968	
3861	0	32992	
3862	0	33052	
3863	0	33020	
3864	0	33000	
3865	0	32940	
3866	0	32757	
3867	0	32630	
3868	0	32644	
3869	0	32532	
3870	0	32517	
3871	0	32496	
3872	0	32444	
3873	0	32672	
3874	0	32856	
3875	0	32776	
3876	0	32808	
3877	0	32701	
3878	0	32749	
3879	0	32888	
3880	0	32880	
3881	0	32902	
3882	0	33024	
3883	0	33022	
3884	0	33096	
3885	0	32920	
3886	0	32760	
3887	0	32696	
3888	0	32740	
3889	0	32672	
3890	0	32452	
3891	0	32400	
3892	0	32417	
3893	0	32512	
3894	0	32588	
3895	0	32736	
3896	0	32984	
3897	0	33040	
3898	0	32772	
3899	0	32724	
3900	0	32892	
3901	0	32984	
3902	0	33133	
3903	0	33236	
3904	0	33056	
3905	0	32956	
3906	0	32644	
3907	0	32576	
3908	0	32660	
3909	0	32516	
3910	0	32464	
3911	0	32432	
3912	0	32520	
3913	0	32660	
3914	0	32722	
3915	0	32700	
3916	0	32808	
3917	0	32868	
3918	0	32888	
3919	0	32960	
3920	0	33024	
3921	0	33045	
3922	0	32968	
3923	0	33012	
3924	0	32968	
3925	0	33020	
3926	0	32901	
3927	0	32738	
3928	0	32625	
3929	0	32420	
3930	0	32484	
3931	0	32440	
3932	0	32457	
3933	0	32644	
3934	0	32624	
3935	0	32600	
3936	0	32740	
3937	0	32932	
3938	0	32896	
3939	0	32968	
3940	0	33017	
3941	0	33092	
3942	0	33172	
3943	0	33104	
3944	0	33060	
3945	0	32836	
3946	0	32520	
3947	0	32564	
3948	0	32608	
3949	0	32548	
3950	0	32516	
3951	0	32541	
3952	0	32488	
3953	0	32616	
3954	0	32716	
3955	0	32772	
3956	0	32960	
3957	0	32988	
3958	0	32884	
3959	0	32816	
3960	0	32877	
3961	0	32932	
3962	0	32944	
3963	0	33056	
3964	0	33220	
3965	0	33092	
3966	0	32844	
3967	0	32628	
3968	0	32524	
3969	0	32532	
3970	0	32464	
3971	0	32324	
3972	0	32294	
3973	0	32576	
3974	0	32808	
3975	0	32772	
3976	0	32736	
3977	0	32750	
3978	0	32772	
3979	0	33068	
3980	0	33136	
3981	0	33104	
3982	0	33032	
3983	0	33008	
3984	0	33084	
3985	0	32964	
3986	0	32724	
3987	0	32616	
3988	0	32532	
3989	0	32428	
3990	0	32420	
3991	0	32472	
3992	0	32542	
3993	0	32676	
3994	0	32640	
3995	0	32800	
3996	0	32928	
3997	0	32872	
3998	0	32884	
3999	0	32932	
4000	0	33152	
4001	0	32984	
4002	0	33084	
4003	0	33105	
4004	0	33041	
4005	0	32836	
4006	0	32552	
4007	0	32564	
4008	0	32564	
4009	0	32472	
4010	0	32504	
4011	0	32336	
4012	0	32348	
4013	0	32604	
4014	0	32808	
4015	0	32912	
4016	0	32948	
4017	0	33036	
4018	0	32928	
4019	0	32904	
4020	0	32945	
4021	0	32880	
4022	0	32940	
4023	0	32928	
4024	0	32924	
4025	0	32852	
4026	0	32788	
4027	0	32656	
4028	0	32640	
4029	0	32580	
4030	0	32500	
4031	0	32408	
4032	0	32450	
4033	0	32588	
4034	0	32804	
4035	0	32888	
4036	0	32948	
4037	0	33084	
4038	0	33060	
4039	0	32928	
4040	0	32724	
4041	0	32728	
4042	0	32858	
4043	0	32956	
4044	0	33044	
4045	0	32988	
4046	0	32968	
4047	0	32800	
4048	0	32576	
4049	0	32416	
4050	0	32384	
4051	0	32317	
4052	0	32468	
4053	0	32680	
4054	0	32780	
4055	0	32768	
4056	0	32854	
4057	0	32868	
4058	0	32944	
4059	0	32996	
4060	0	33120	
4061	0	33092	
4062	0	33068	
4063	0	32960	
4064	0	32724	
4065	0	32704	
4066	0	32732	
4067	0	32768	
4068	0	32629	
4069	0	32624	
4070	0	32468	
4071	0	32382	
4072	0	32416	
4073	0	32628	
4074	0	32764	
4075	0	32852	
4076	0	32788	
4077	0	32868	
4078	0	32904	
4079	0	32904	
4080	0	33020	
4081	0	33084	
4082	0	32992	
4083	0	33036	
4084	0	33092	
4085	0	33072	
4086	0	32880	
4087	0	32608	
4088	0	32620	
4089	0	32460	
4090	0	32332	
4091	0	32383	
4092	0	32476	
4093	0	32536	
4094	0	32592	
4095	0	32768	
4096	0	32992	
4097	0	32956	
4098	0	32904	
4099	0	32877	
4100	0	33056	
4101	0	32956	
4102	0	32980	
4103	0	33032	
4104	0	33076	
4105	0	32992	
4106	0	32828	
4107	0	32593	
4108	0	32580	
4109	0	32540	
4110	0	32520	
4111	0	32412	
4112	0	32444	
4113	0	32645	
4114	0	32794	
4115	0	32880	
4116	0	32848	
4117	0	32796	
4118	0	32828	
4119	0	32968	
4120	0	32992	
4121	0	32960	
4122	0	33028	
4123	0	33200	
4124	0	33120	
4125	0	32980	
4126	0	32612	
4127	0	32460	
4128	0	32412	
4129	0	32456	
4130	0	32428	
4131	0	32436	
4132	0	32476	
4133	0	32661	
4134	0	32836	
4135	0	32990	
4136	0	33064	
4137	0	32824	
4138	0	32944	
4139	0	32925	
4140	0	32900	
4141	0	32926	
4142	0	32940	
4143	0	33114	
4144	0	33136	
4145	0	33072	
4146	0	32740	
4147	0	32544	
4148	0	32484	
4149	0	32544	
4150	0	32468	
4151	0	32476	
4152	0	32388	
4153	0	32604	
4154	0	32676	
4155	0	32765	
4156	0	32816	
4157	0	32868	
4158	0	32904	
4159	0	32972	
4160	0	32984	
4161	0	33064	
4162	0	33086	
4163	0	33092	
4164	0	33060	
4165	0	32968	
4166	0	32760	
4167	0	32676	
4168	0	32536	
4169	0	32492	
4170	0	32380	
4171	0	32416	
4172	0	32512	
4173	0	32632	
4174	0	32800	
4175	0	32868	
4176	0	32788	
4177	0	32796	
4178	0	32908	
4179	0	33138	
4180	0	33040	
4181	0	32884	
4182	0	32800	
4183	0	32908	
4184	0	32868	
4185	0	32940	
4186	0	32760	
4187	0	32572	
4188	0	32708	
4189	0	32644	
4190	0	32544	
4191	0	32500	
4192	0	32476	
4193	0	32616	
4194	0	32652	
4195	0	32820	
4196	0	32936	
4197	0	32884	
4198	0	32860	
4199	0	32898	
4200	0	32960	
4201	0	32988	
4202	0	32980	
4203	0	33060	
4204	0	33116	
4205	0	33032	
4206	0	32917	
4207	0	32792	
4208	0	32748	
4209	0	32741	
4210	0	32480	
4211	0	32040	
4212	0	32054	
4213	0	32312	
4214	0	32500	
4215	0	32764	
4216	0	32896	
4217	0	33112	
4218	0	33072	
4219	0	33086	
4220	0	33072	
4221	0	32989	
4222	0	32908	
4223	0	32996	
4224	0	32904	
4225	0	32960	
4226	0	32884	
4227	0	32660	
4228	0	32584	
4229	0	32540	
4230	0	32373	
4231	0	32423	
4232	0	32580	
4233	0	32672	
4234	0	32784	
4235	0	32868	
4236	0	32964	
4237	0	32836	
4238	0	32740	
4239	0	32920	
4240	0	32928	
4241	0	32868	
4242	0	32904	
4243	0	33012	
4244	0	33036	
4245	0	32964	
4246	0	32856	
4247	0	32796	
4248	0	32708	
4249	0	32556	
4250	0	32500	
4251	0	32354	
4252	0	32336	
4253	0	32544	
4254	0	32636	
4255	0	32828	
4256	0	32908	
4257	0	32993	
4258	0	32944	
4259	0	32976	
4260	0	32932	
4261	0	32980	
4262	0	32940	
4263	0	33146	
4264	0	33224	
4265	0	33124	
4266	0	32836	
4267	0	32484	
4268	0	32404	
4269	0	32404	
4270	0	32461	
4271	0	32318	
4272	0	32316	
4273	0	32588	
4274	0	32728	
4275	0	32748	
4276	0	32836	
4277	0	32868	
4278	0	32865	
4279	0	33028	
4280	0	33096	
4281	0	33168	
4282	0	33162	
4283	0	33076	
4284	0	33004	
4285	0	32852	
4286	0	32696	
4287	0	32628	
4288	0	32568	
4289	0	32452	
4290	0	32472	
4291	0	32456	
4292	0	32493	
4293	0	32680	
4294	0	32664	
4295	0	32720	
4296	0	32912	
4297	0	32932	
4298	0	32940	
4299	0	32948	
4300	0	33008	
4301	0	32948	
4302	0	32936	
4303	0	32984	
4304	0	33032	
4305	0	32980	
4306	0	32760	
4307	0	32644	
4308	0	32548	
4309	0	32476	
4310	0	32516	
4311	0	32625	
4312	0	32560	
4313	0	32656	
4314	0	32692	
4315	0	32676	
4316	0	32740	
4317	0	32872	
4318	0	32902	
4319	0	33092	
4320	0	33060	
4321	0	33032	
4322	0	33012	
4323	0	33052	
4324	0	33024	
4325	0	32896	
4326	0	32844	
4327	0	32608	
4328	0	32472	
4329	0	32416	
4330	0	32276	
4331	0	32320	
4332	0	32412	
4333	0	32632	
4334	0	32712	
4335	0	32816	
4336	0	32956	
4337	0	32988	
4338	0	32988	
4339	0	33096	
4340	0	33036	
4341	0	32924	
4342	0	32976	
4343	0	32956	
4344	0	33005	
4345	0	33032	
4346	0	32892	
4347	0	32712	
4348	0	32616	
4349	0	32380	
4350	0	32420	
4351	0	32280	
4352	0	32336	
4353	0	32576	
4354	0	32776	
4355	0	32708	
4356	0	32784	
4357	0	32912	
4358	0	32800	
4359	0	32852	
4360	0	32900	
4361	0	32892	
4362	0	33070	
4363	0	33204	
4364	0	33224	
4365	0	33004	
4366	0	32688	
4367	0	32620	
4368	0	32556	
4369	0	32624	
4370	0	32456	
4371	0	32357	
4372	0	32468	
4373	0	32668	
4374	0	32788	
4375	0	32852	
4376	0	32868	
4377	0	32856	
4378	0	32877	
4379	0	32876	
4380	0	32872	
4381	0	32936	
4382	0	32996	
4383	0	33037	
4384	0	32998	
4385	0	32905	
4386	0	32718	
4387	0	32684	
4388	0	32721	
4389	0	32652	
4390	0	32676	
4391	0	32613	
4392	0	32312	
4393	0	32460	
4394	0	32612	
4395	0	32764	
4396	0	32712	
4397	0	32784	
4398	0	32864	
4399	0	32917	
4400	0	33060	
4401	0	33152	
4402	0	33233	
4403	0	33148	
4404	0	32880	
4405	0	32804	
4406	0	32796	
4407	0	32484	
4408	0	32416	
4409	0	32356	
4410	0	32440	
4411	0	32392	
4412	0	32380	
4413	0	32654	
4414	0	32745	
4415	0	32764	
4416	0	32920	
4417	0	32900	
4418	0	32932	
4419	0	32984	
4420	0	32956	
4421	0	33060	
4422	0	33048	
4423	0	33092	
4424	0	33144	
4425	0	32972	
4426	0	32712	
4427	0	32680	
4428	0	32636	
4429	0	32500	
4430	0	32360	
4431	0	32324	
4432	0	32424	
4433	0	32576	
4434	0	32636	
4435	0	32800	
4436	0	32856	
4437	0	32868	
4438	0	32925	
4439	0	33004	
4440	0	33056	
4441	0	33013	
4442	0	32980	
4443	0	33006	
4444	0	32993	
4445	0	32932	
4446	0	32825	
4447	0	32692	
4448	0	32696	
4449	0	32536	
4450	0	32456	
4451	0	32412	
4452	0	32472	
4453	0	32604	
4454	0	32724	
4455	0	32836	
4456	0	32853	
4457	0	32884	
4458	0	32884	
4459	0	32989	
4460	0	32984	
4461	0	32904	
4462	0	32852	
4463	0	32884	
4464	0	32894	
4465	0	33048	
4466	0	32932	
4467	0	32768	
4468	0	32544	
4469	0	32508	
4470	0	32464	
4471	0	32336	
4472	0	32444	
4473	0	32624	
4474	0	32736	
4475	0	32852	
4476	0	32928	
4477	0	32974	
4478	0	33000	
4479	0	32964	
4480	0	32952	
4481	0	32892	
4482	0	32880	
4483	0	32912	
4484	0	32956	
4485	0	33028	
4486	0	32982	
4487	0	32820	
4488	0	32676	
4489	0	32700	
4490	0	32492	
4491	0	32268	
4492	0	32266	
4493	0	32592	
4494	0	32528	
4495	0	32510	
4496	0	32668	
4497	0	32864	
4498	0	32957	
4499	0	33032	
4500	0	32984	
4501	0	33044	
4502	0	32992	
4503	0	33092	
4504	0	33100	
4505	0	33012	
4506	0	32952	
4507	0	32901	
4508	0	32676	
4509	0	32432	
4510	0	32264	
4511	0	32420	
4512	0	32440	
4513	0	32608	
4514	0	32800	
4515	0	32764	
4516	0	32905	
4517	0	32892	
4518	0	32918	
4519	0	32836	
4520	0	32868	
4521	0	32964	
4522	0	33016	
4523	0	33092	
4524	0	32988	
4525	0	32948	
4526	0	32844	
4527	0	32716	
4528	0	32644	
4529	0	32540	
4530	0	32428	
4531	0	32430	
4532	0	32432	
4533	0	32584	
4534	0	32708	
4535	0	32752	
4536	0	32816	
4537	0	32888	
4538	0	32912	
4539	0	32964	
4540	0	33047	
4541	0	33117	
4542	0	33060	
4543	0	33076	
4544	0	33140	
4545	0	32932	
4546	0	32640	
4547	0	32548	
4548	0	32524	
4549	0	32640	
4550	0	32536	
4551	0	32270	
4552	0	32300	
4553	0	32409	
4554	0	32608	
4555	0	32788	
4556	0	32865	
4557	0	33049	
4558	0	33084	
4559	0	33020	
4560	0	32996	
4561	0	33006	
4562	0	33153	
4563	0	33127	
4564	0	32828	
4565	0	32760	
4566	0	32644	
4567	0	32532	
4568	0	32496	
4569	0	32564	
4570	0	32548	
4571	0	32416	
4572	0	32476	
4573	0	32560	
4574	0	32800	
4575	0	32932	
4576	0	33020	
4577	0	33089	
4578	0	32964	
4579	0	32940	
4580	0	32980	
4581	0	32840	
4582	0	32668	
4583	0	32768	
4584	0	32808	
4585	0	32956	
4586	0	32996	
4587	0	32820	
4588	0	32796	
4589	0	32620	
4590	0	32504	
4591	0	32340	
4592	0	32260	
4593	0	32380	
4594	0	32796	
4595	0	32788	
4596	0	32860	
4597	0	32804	
4598	0	32884	
4599	0	33100	
4600	0	33144	
4601	0	33112	
4602	0	33024	
4603	0	33000	
4604	0	32952	
4605	0	32928	
4606	0	32772	
4607	0	32790	
4608	0	32604	
4609	0	32592	
4610	0	32520	
4611	0	32404	
4612	0	32465	
4613	0	32524	
4614	0	32641	
4615	0	32830	
4616	0	32880	
4617	0	32864	
4618	0	32916	
4619	0	32952	
4620	0	32884	
4621	0	32972	
4622	0	32996	
4623	0	33068	
4624	0	32991	
4625	0	32981	
4626	0	32796	
4627	0	32672	
4628	0	32572	
4629	0	32524	
4630	0	32468	
4631	0	32404	
4632	0	32461	
4633	0	32760	
4634	0	32948	
4635	0	32932	
4636	0	32792	
4637	0	32696	
4638	0	32584	
4639	0	32660	
4640	0	32892	
4641	0	33064	
4642	0	33036	
4643	0	33054	
4644	0	33136	
4645	0	32908	
4646	0	32800	
4647	0	32716	
4648	0	32629	
4649	0	32532	
4650	0	32580	
4651	0	32456	
4652	0	32432	
4653	0	32500	
4654	0	32684	
4655	0	32724	
4656	0	32864	
4657	0	32880	
4658	0	32868	
4659	0	32964	
4660	0	32924	
4661	0	33000	
4662	0	33105	
4663	0	33112	
4664	0	33206	
4665	0	33004	
4666	0	32936	
4667	0	32688	
4668	0	32648	
4669	0	32508	
4670	0	32356	
4671	0	32388	
4672	0	32344	
4673	0	32404	
4674	0	32428	
4675	0	32668	
4676	0	33052	
4677	0	33052	
4678	0	32760	
4679	0	32672	
4680	0	32848	
4681	0	32996	
4682	0	33136	
4683	0	33247	
4684	0	33240	
4685	0	32948	
4686	0	32660	
4687	0	32500	
4688	0	32496	
4689	0	32448	
4690	0	32528	
4691	0	32480	
4692	0	32486	
4693	0	32628	
4694	0	32684	
4695	0	32804	
4696	0	32924	
4697	0	32960	
4698	0	32994	
4699	0	32868	
4700	0	32937	
4701	0	33000	
4702	0	32996	
4703	0	33104	
4704	0	32996	
4705	0	32956	
4706	0	32756	
4707	0	32756	
4708	0	32599	
4709	0	32604	
4710	0	32508	
4711	0	32500	
4712	0	32544	
4713	0	32592	
4714	0	32689	
4715	0	32636	
4716	0	32716	
4717	0	32812	
4718	0	32788	
4719	0	32856	
4720	0	32976	
4721	0	32912	
4722	0	32956	
4723	0	33060	
4724	0	33064	
4725	0	33005	
4726	0	32820	
4727	0	32612	
4728	0	32508	
4729	0	32488	
4730	0	32420	
4731	0	32448	
4732	0	32468	
4733	0	32660	
4734	0	32844	
4735	0	32864	
4736	0	32860	
4737	0	32816	
4738	0	32876	
4739	0	32904	
4740	0	32892	
4741	0	32964	
4742	0	32974	
4743	0	33174	
4744	0	33192	
4745	0	33032	
4746	0	32812	
4747	0	32668	
4748	0	32584	
4749	0	32456	
4750	0	32365	
4751	0	32516	
4752	0	32480	
4753	0	32596	
4754	0	32712	
4755	0	32708	
4756	0	32800	
4757	0	32766	
4758	0	32868	
4759	0	32924	
4760	0	33028	
4761	0	33060	
4762	0	33044	
4763	0	33056	
4764	0	33057	
4765	0	32940	
4766	0	32781	
4767	0	32628	
4768	0	32588	
4769	0	32668	
4770	0	32732	
4771	0	32544	
4772	0	32325	
4773	0	32404	
4774	0	32660	
4775	0	32952	
4776	0	32852	
4777	0	32580	
4778	0	32612	
4779	0	32804	
4780	0	32976	
4781	0	32884	
4782	0	32932	
4783	0	33132	
4784	0	33112	
4785	0	33008	
4786	0	32837	
4787	0	32800	
4788	0	32708	
4789	0	32612	
4790	0	32448	
4791	0	32352	
4792	0	32564	
4793	0	32613	
4794	0	32716	
4795	0	32741	
4796	0	32708	
4797	0	32669	
4798	0	32748	
4799	0	32836	
4800	0	33068	
4801	0	33140	
4802	0	33188	
4803	0	33068	
4804	0	33192	
4805	0	33224	
4806	0	32869	
4807	0	32716	
4808	0	32440	
4809	0	32332	
4810	0	32340	
4811	0	32300	
4812	0	32309	
4813	0	32537	
4814	0	32772	
4815	0	32796	
4816	0	32748	
4817	0	32784	
4818	0	32880	
4819	0	32912	
4820	0	32984	
4821	0	32916	
4822	0	32956	
4823	0	33140	
4824	0	33144	
4825	0	32928	
4826	0	32868	
4827	0	32680	
4828	0	32636	
4829	0	32636	
4830	0	32517	
4831	0	32456	
4832	0	32464	
4833	0	32596	
4834	0	32624	
4835	0	32716	
4836	0	32769	
4837	0	32856	
4838	0	32996	
4839	0	33028	
4840	0	33144	
4841	0	33060	
4842	0	32880	
4843	0	32936	
4844	0	33160	
4845	0	33064	
4846	0	32678	
4847	0	32548	
4848	0	32509	
4849	0	32510	
4850	0	32428	
4851	0	32412	
4852	0	32474	
4853	0	32516	
4854	0	32564	
4855	0	32804	
4856	0	32892	
4857	0	32880	
4858	0	32764	
4859	0	32804	
4860	0	32916	
4861	0	33060	
4862	0	33100	
4863	0	33100	
4864	0	33092	
4865	0	33048	
4866	0	32917	
4867	0	32740	
4868	0	32661	
4869	0	32512	
4870	0	32408	
4871	0	32376	
4872	0	32404	
4873	0	32532	
4874	0	32662	
4875	0	32773	
4876	0	32897	
4877	0	32888	
4878	0	32900	
4879	0	33024	
4880	0	32976	
4881	0	33040	
4882	0	33012	
4883	0	32940	
4884	0	33080	
4885	0	33126	
4886	0	32932	
4887	0	32696	
4888	0	32708	
4889	0	32452	
4890	0	32302	
4891	0	32069	
4892	0	32192	
4893	0	32484	
4894	0	32700	
4895	0	32856	
4896	0	32832	
4897	0	32940	
4898	0	33014	
4899	0	33052	
4900	0	33008	
4901	0	33008	
4902	0	33032	
4903	0	33060	
4904	0	33012	
4905	0	33056	
4906	0	32960	
4907	0	32628	
4908	0	32588	
4909	0	32532	
4910	0	32448	
4911	0	32430	
4912	0	32408	
4913	0	32432	
4914	0	32604	
4915	0	32688	
4916	0	32732	
4917	0	32896	
4918	0	32956	
4919	0	32940	
4920	0	33032	
4921	0	32940	
4922	0	33056	
4923	0	33152	
4924	0	33140	
4925	0	33004	
4926	0	32744	
4927	0	32692	
4928	0	32608	
4929	0	32576	
4930	0	32492	
4931	0	32444	
4932	0	32366	
4933	0	32568	
4934	0	32801	
4935	0	32880	
4936	0	32824	
4937	0	32664	
4938	0	32661	
4939	0	32752	
4940	0	32884	
4941	0	33000	
4942	0	33056	
4943	0	33096	
4944	0	33137	
4945	0	33100	
4946	0	32972	
4947	0	32824	
4948	0	32720	
4949	0	32528	
4950	0	32424	
4951	0	32276	
4952	0	32240	
4953	0	32552	
4954	0	32804	
4955	0	32948	
4956	0	33020	
4957	0	32868	
4958	0	32732	
4959	0	32690	
4960	0	32808	
4961	0	33000	
4962	0	33048	
4963	0	33088	
4964	0	33040	
4965	0	32996	
4966	0	32816	
4967	0	32700	
4968	0	32716	
4969	0	32520	
4970	0	32452	
4971	0	32428	
4972	0	32492	
4973	0	32528	
4974	0	32696	
4975	0	32900	
4976	0	32804	
4977	0	32836	
4978	0	32844	
4979	0	32876	
4980	0	33022	
4981	0	32981	
4982	0	33068	
4983	0	33125	
4984	0	33089	
4985	0	32920	
4986	0	32712	
4987	0	32561	
4988	0	32552	
4989	0	32452	
4990	0	32408	
4991	0	32429	
4992	0	32484	
4993	0	32716	
4994	0	32708	
4995	0	32736	
4996	0	32824	
4997	0	32976	
4998	0	33056	
4999	0	32956	
5000	0	32936	
5001	0	32902	
5002	0	32920	
5003	0	33040	
5004	0	33117	
5005	0	32842	
5006	0	32768	
5007	0	32612	
5008	0	32384	
5009	0	32412	
5010	0	32350	
5011	0	32516	
5012	0	32672	
5013	0	32732	
5014	0	32842	
5015	0	32832	
5016	0	32936	
5017	0	33028	
5018	0	33052	
5019	0	33017	
5020	0	32820	
5021	0	32784	
5022	0	32804	
5023	0	32820	
5024	0	32908	
5025	0	33012	
5026	0	32912	
5027	0	32708	
5028	0	32624	
5029	0	32588	
5030	0	32562	
5031	0	32424	
5032	0	32424	
5033	0	32560	
5034	0	32724	
5035	0	32760	
5036	0	32858	
5037	0	32960	
5038	0	32900	
5039	0	32896	
5040	0	32964	
5041	0	32981	
5042	0	33082	
5043	0	33032	
5044	0	32964	
5045	0	32936	
5046	0	32836	
5047	0	32676	
5048	0	32654	
5049	0	32456	
5050	0	32412	
5051	0	32356	
5052	0	32369	
5053	0	32609	
5054	0	32794	
5055	0	32868	
5056	0	32924	
5057	0	32896	
5058	0	32884	
5059	0	32972	
5060	0	32817	
5061	0	32808	
5062	0	32780	
5063	0	32764	
5064	0	32868	
5065	0	32948	
5066	0	32908	
5067	0	32848	
5068	0	32568	
5069	0	32668	
5070	0	32672	
5071	0	32544	
5072	0	32516	
5073	0	32700	
5074	0	32800	
5075	0	32996	
5076	0	33158	
5077	0	33216	
5078	0	33272	
5079	0	33012	
5080	0	32644	
5081	0	32862	
5082	0	33044	
5083	0	32876	
5084	0	32716	
5085	0	32112	
5086	0	31744	
5087	0	31460	
5088	0	31648	
5089	0	31952	
5090	0	32208	
5091	0	32460	
5092	0	32564	
5093	0	32740	
5094	0	33016	
5095	0	33304	
5096	0	33480	
5097	0	33560	
5098	0	33784	
5099	0	33596	
5100	0	33676	
5101	0	33864	
5102	0	33752	
5103	0	33588	
5104	0	33344	
5105	0	33364	
5106	0	33053	
5107	0	32748	
5108	0	32317	
5109	0	31988	
5110	0	31698	
5111	0	31900	
5112	0	31900	
5113	0	32036	
5114	0	32316	
5115	0	32704	
5116	0	32924	
5117	0	33037	
5118	0	33217	
5119	0	33508	
5120	0	33408	
5121	0	33300	
5122	0	33200	
5123	0	33148	
5124	0	33220	
5125	0	33196	
5126	0	33000	
5127	0	32911	
5128	0	32670	
5129	0	32520	
5130	0	32376	
5131	0	32200	
5132	0	32124	
5133	0	32164	
5134	0	32108	
5135	0	32260	
5136	0	32368	
5137	0	32540	
5138	0	32692	
5139	0	32864	
5140	0	32868	
5141	0	32860	
5142	0	32929	
5143	0	33029	
5144	0	32970	
5145	0	32984	
5146	0	32804	
5147	0	32680	
5148	0	32616	
5149	0	32569	
5150	0	32524	
5151	0	32396	
5152	0	32504	
5153	0	32700	
5154	0	32788	
5155	0	32844	
5156	0	32924	
5157	0	32992	
5158	0	32940	
5159	0	32968	
5160	0	32992	
5161	0	33040	
5162	0	33036	
5163	0	33044	
5164	0	33076	
5165	0	33044	
5166	0	32801	
5167	0	32636	
5168	0	32556	
5169	0	32548	
5170	0	32488	
5171	0	32520	
5172	0	32816	
5173	0	33140	
5174	0	33224	
5175	0	32922	
5176	0	32612	
5177	0	32160	
5178	0	32172	
5179	0	32480	
5180	0	32712	
5181	0	32882	
5182	0	33072	
5183	0	33168	
5184	0	33288	
5185	0	33108	
5186	0	32936	
5187	0	32872	
5188	0	32928	
5189	0	32864	
5190	0	32784	
5191	0	32302	
5192	0	32116	
5193	0	32165	
5194	0	32153	
5195	0	32429	
5196	0	32604	
5197	0	32928	
5198	0	33100	
5199	0	33144	
5200	0	33236	
5201	0	33248	
5202	0	33248	
5203	0	33322	
5204	0	33157	
5205	0	33136	
5206	0	32968	
5207	0	32620	
5208	0	32113	
5209	0	31748	
5210	0	31480	
5211	0	31092	
5212	0	31172	
5213	0	31240	
5214	0	31664	
5215	0	32172	
5216	0	32820	
5217	0	33356	
5218	0	33784	
5219	0	34108	
5220	0	34364	
5221	0	34468	
5222	0	34532	
5223	0	34456	
5224	0	34364	
5225	0	34122	
5226	0	33748	
5227	0	33404	
5228	0	33060	
5229	0	32660	
5230	0	32396	
5231	0	31884	
5232	0	31172	
5233	0	31124	
5234	0	31213	
5235	0	30724	
5236	0	29636	
5237	0	29868	
5238	0	30748	
5239	0	31648	
5240	0	32572	
5241	0	33572	
5242	0	34564	
5243	0	35296	
5244	0	35740	
5245	0	35805	
5246	0	35673	
5247	0	35368	
5248	0	34904	
5249	0	34440	
5250	0	33940	
5251	0	33284	
5252	0	32684	
5253	0	32237	
5254	0	31929	
5255	0	31524	
5256	0	31808	
5257	0	31684	
5258	0	31108	
5259	0	30944	
5260	0	30604	
5261	0	30980	
5262	0	31892	
5263	0	32520	
5264	0	32716	
5265	0	32732	
5266	0	32748	
5267	0	32888	
5268	0	32920	
5269	0	32812	
5270	0	32884	
5271	0	32848	
5272	0	32892	
5273	0	33084	
5274	0	33148	
5275	0	33304	
5276	0	33252	
5277	0	33012	
5278	0	32893	
5279	0	32732	
5280	0	32540	
5281	0	32312	
5282	0	32588	
5283	0	32871	
5284	0	33044	
5285	0	33108	
5286	0	32624	
5287	0	32308	
5288	0	32372	
5289	0	32524	
5290	0	32628	
5291	0	32544	
5292	0	32480	
5293	0	32612	
5294	0	32684	
5295	0	31352	
5296	0	30724	
5297	0	30796	
5298	0	31720	
5299	0	32702	
5300	0	33708	
5301	0	34324	
5302	0	34384	
5303	0	34448	
5304	0	34588	
5305	0	34349	
5306	0	34341	
5307	0	34166	
5308	0	33836	
5309	0	33710	
5310	0	33372	
5311	0	31920	
5312	0	31236	
5313	0	31877	
5314	0	32240	
5315	0	31865	
5316	0	31792	
5317	0	31924	
5318	0	32444	
5319	0	32608	
5320	0	32778	
5321	0	32768	
5322	0	31792	
5323	0	30176	
5324	0	30240	
5325	0	31696	
5326	0	32968	
5327	0	33856	
5328	0	34628	
5329	0	34796	
5330	0	35288	
5331	0	34980	
5332	0	34864	
5333	0	34676	
5334	0	34084	
5335	0	33992	
5336	0	33112	
5337	0	32992	
5338	0	32648	
5339	0	32756	
5340	0	31664	
5341	0	31317	
5342	0	31708	
5343	0	31628	
5344	0	31512	
5345	0	31912	
5346	0	32260	
5347	0	32560	
5348	0	33044	
5349	0	33336	
5350	0	33496	
5351	0	33348	
5352	0	33344	
5353	0	33345	
5354	0	33252	
5355	0	33072	
5356	0	32424	
5357	0	32040	
5358	0	31740	
5359	0	31620	
5360	0	30989	
5361	0	30604	
5362	0	31052	
5363	0	30752	
5364	0	30868	
5365	0	31768	
5366	0	32860	
5367	0	34016	
5368	0	34600	
5369	0	34908	
5370	0	35166	
5371	0	35224	
5372	0	34912	
5373	0	34652	
5374	0	34048	
5375	0	33496	
5376	0	33120	
5377	0	32924	
5378	0	32772	
5379	0	32428	
5380	0	32248	
5381	0	32132	
5382	0	31508	
5383	0	31344	
5384	0	31672	
5385	0	31948	
5386	0	31912	
5387	0	31861	
5388	0	32034	
5389	0	32164	
5390	0	31984	
5391	0	31916	
5392	0	32116	
5393	0	32316	
5394	0	33312	
5395	0	33972	
5396	0	33764	
5397	0	33464	
5398	0	33090	
5399	0	32816	
5400	0	32624	
5401	0	32560	
5402	0	32708	
5403	0	33008	
5404	0	33124	
5405	0	33292	
5406	0	33346	
5407	0	33472	
5408	0	32892	
5409	0	31856	
5410	0	31676	
5411	0	31556	
5412	0	31184	
5413	0	31532	
5414	0	31308	
5415	0	28029	
5416	0	28640	
5417	0	29472	
5418	0	30888	
5419	0	32630	
5420	0	34640	
5421	0	36556	
5422	0	37700	
5423	0	37924	
5424	0	38024	
5425	0	37840	
5426	0	37352	
5427	0	37036	
5428	0	35702	
5429	0	34100	
5430	0	33392	
5431	0	32632	
5432	0	31841	
5433	0	30794	
5434	0	29524	
5435	0	29228	
5436	0	29796	
5437	0	30160	
5438	0	30636	
5439	0	31578	
5440	0	32092	
5441	0	32600	
5442	0	33252	
5443	0	33369	
5444	0	32852	
5445	0	32400	
5446	0	32652	
5447	0	32952	
5448	0	32999	
5449	0	32578	
5450	0	32232	
5451	0	32544	
5452	0	32632	
5453	0	32756	
5454	0	32948	
5455	0	33053	
5456	0	33436	
5457	0	33856	
5458	0	34260	
5459	0	33504	
5460	0	32814	
5461	0	32448	
5462	0	31956	
5463	0	32292	
5464	0	32360	
5465	0	32488	
5466	0	32708	
5467	0	33652	
5468	0	33216	
5469	0	32196	
5470	0	31468	
5471	0	31220	
5472	0	31244	
5473	0	31644	
5474	0	31804	
5475	0	32044	
5476	0	32704	
5477	0	33157	
5478	0	33492	
5479	0	33728	
5480	0	33356	
5481	0	32644	
5482	0	32892	
5483	0	33263	
5484	0	33545	
5485	0	33612	
5486	0	33540	
5487	0	33112	
5488	0	33038	
5489	0	33024	
5490	0	32512	
5491	0	32144	
5492	0	31352	
5493	0	28548	
5494	0	28644	
5495	0	30457	
5496	0	31492	
5497	0	32292	
5498	0	33648	
5499	0	34636	
5500	0	35012	
5501	0	34816	
5502	0	35320	
5503	0	35984	
5504	0	35720	
5505	0	34949	
5506	0	34464	
5507	0	34180	
5508	0	34172	
5509	0	34240	
5510	0	34012	
5511	0	33189	
5512	0	32280	
5513	0	31684	
5514	0	31844	
5515	0	31644	
5516	0	31236	
5517	0	30792	
5518	0	30692	
5519	0	31548	
5520	0	31460	
5521	0	31080	
5522	0	31332	
5523	0	31952	
5524	0	32544	
5525	0	32980	
5526	0	33072	
5527	0	32592	
5528	0	32792	
5529	0	33160	
5530	0	33496	
5531	0	33716	
5532	0	33901	
5533	0	32800	
5534	0	32540	
5535	0	32860	
5536	0	33308	
5537	0	33640	
5538	0	33760	
5539	0	32928	
5540	0	33008	
5541	0	33260	
5542	0	33510	
5543	0	33796	
5544	0	33516	
5545	0	33076	
5546	0	32836	
5547	0	33022	
5548	0	32864	
5549	0	32532	
5550	0	32356	
5551	0	32008	
5552	0	31844	
5553	0	31916	
5554	0	31936	
5555	0	32128	
5556	0	32484	
5557	0	32644	
5558	0	32465	
5559	0	32504	
5560	0	32556	
5561	0	32493	
5562	0	32536	
5563	0	32592	
5564	0	32716	
5565	0	32790	
5566	0	32804	
5567	0	32808	
5568	0	32804	
5569	0	32684	
5570	0	32644	
5571	0	32592	
5572	0	32612	
5573	0	32768	
5574	0	32828	
5575	0	32824	
5576	0	32812	
5577	0	32732	
5578	0	32890	
5579	0	32916	
5580	0	32833	
5581	0	32684	
5582	0	32708	
5583	0	32892	
5584	0	33052	
5585	0	33000	
5586	0	33052	
5587	0	32916	
5588	0	32884	
5589	0	32556	
5590	0	32509	
5591	0	32876	
5592	0	33644	
5593	0	33576	
5594	0	32954	
5595	0	32374	
5596	0	31940	
5597	0	31868	
5598	0	31832	
5599	0	31392	
5600	0	31436	
5601	0	32040	
5602	0	31800	
5603	0	31584	
5604	0	32600	
5605	0	33529	
5606	0	34244	
5607	0	34756	
5608	0	34945	
5609	0	34792	
5610	0	34568	
5611	0	34628	
5612	0	34256	
5613	0	33984	
5614	0	33640	
5615	0	33236	
5616	0	32977	
5617	0	32684	
5618	0	32317	
5619	0	32112	
5620	0	32056	
5621	0	31893	
5622	0	32042	
5623	0	32176	
5624	0	32312	
5625	0	32184	
5626	0	32168	
5627	0	32144	
5628	0	32016	
5629	0	31936	
5630	0	32069	
5631	0	32076	
5632	0	32244	
5633	0	32196	
5634	0	32228	
5635	0	32484	
5636	0	32784	
5637	0	32894	
5638	0	33028	
5639	0	33140	
5640	0	33201	
5641	0	33580	
5642	0	33625	
5643	0	33488	
5644	0	33332	
5645	0	32984	
5646	0	32804	
5647	0	32612	
5648	0	32344	
5649	0	32220	
5650	0	32262	
5651	0	32284	
5652	0	32400	
5653	0	32902	
5654	0	33006	
5655	0	32782	
5656	0	32784	
5657	0	32772	
5658	0	32708	
5659	0	32928	
5660	0	33136	
5661	0	33188	
5662	0	33328	
5663	0	33296	
5664	0	33216	
5665	0	33162	
5666	0	33056	
5667	0	32632	
5668	0	32364	
5669	0	32400	
5670	0	32516	
5671	0	32484	
5672	0	32480	
5673	0	32484	
5674	0	32412	
5675	0	32384	
5676	0	32636	
5677	0	32732	
5678	0	32880	
5679	0	32876	
5680	0	32960	
5681	0	33004	
5682	0	33040	
5683	0	33016	
5684	0	33056	
5685	0	33012	
5686	0	32832	
5687	0	32712	
5688	0	32668	
5689	0	32476	
5690	0	32528	
5691	0	32372	
5692	0	32428	
5693	0	32629	
5694	0	32694	
5695	0	32792	
5696	0	32833	
5697	0	32916	
5698	0	32908	
5699	0	32916	
5700	0	32912	
5701	0	33020	
5702	0	33060	
5703	0	33000	
5704	0	33112	
5705	0	32901	
5706	0	32816	
5707	0	32740	
5708	0	32596	
5709	0	32512	
5710	0	32488	
5711	0	32420	
5712	0	32428	
5713	0	32608	
5714	0	32660	
5715	0	32824	
5716	0	32812	
5717	0	32892	
5718	0	32964	
5719	0	32960	
5720	0	32976	
5721	0	32920	
5722	0	32928	
5723	0	33057	
5724	0	33024	
5725	0	32952	
5726	0	32780	
5727	0	32648	
5728	0	32560	
5729	0	32564	
5730	0	32536	
5731	0	32382	
5732	0	32472	
5733	0	32552	
5734	0	32696	
5735	0	32776	
5736	0	32842	
5737	0	32864	
5738	0	32972	
5739	0	32944	
5740	0	32960	
5741	0	33056	
5742	0	33045	
5743	0	32912	
5744	0	32854	
5745	0	32792	
5746	0	32804	
5747	0	32828	
5748	0	32876	
5749	0	32748	
5750	0	32564	
5751	0	32360	
5752	0	32256	
5753	0	32440	
5754	0	32564	
5755	0	32748	
5756	0	32804	
5757	0	32809	
5758	0	32916	
5759	0	33008	
5760	0	32920	
5761	0	32980	
5762	0	33020	
5763	0	33168	
5764	0	33092	
5765	0	32944	
5766	0	32960	
5767	0	32912	
5768	0	32676	
5769	0	32324	
5770	0	32244	
5771	0	32224	
5772	0	32456	
5773	0	32660	
5774	0	32688	
5775	0	32740	
5776	0	32764	
5777	0	32876	
5778	0	32976	
5779	0	33012	
5780	0	32958	
5781	0	33012	
5782	0	33060	
5783	0	33030	
5784	0	33032	
5785	0	32936	
5786	0	32832	
5787	0	32752	
5788	0	32604	
5789	0	32516	
5790	0	32452	
5791	0	32424	
5792	0	32476	
5793	0	32500	
5794	0	32572	
5795	0	32724	
5796	0	32936	
5797	0	33008	
5798	0	33024	
5799	0	33032	
5800	0	32928	
5801	0	32911	
5802	0	32928	
5803	0	32996	
5804	0	33040	
5805	0	33008	
5806	0	32836	
5807	0	32724	
5808	0	32613	
5809	0	32468	
5810	0	32424	
5811	0	32360	
5812	0	32434	
5813	0	32612	
5814	0	32770	
5815	0	32820	
5816	0	32813	
5817	0	32905	
5818	0	32904	
5819	0	32956	
5820	0	32932	
5821	0	33028	
5822	0	32956	
5823	0	32905	
5824	0	33056	
5825	0	32912	
5826	0	32812	
5827	0	32750	
5828	0	32740	
5829	0	32720	
5830	0	32556	
5831	0	32284	
5832	0	32298	
5833	0	32424	
5834	0	32592	
5835	0	32748	
5836	0	32812	
5837	0	32804	
5838	0	32912	
5839	0	33052	
5840	0	33024	
5841	0	33028	
5842	0	32996	
5843	0	33136	
5844	0	33222	
5845	0	32940	
5846	0	32764	
5847	0	32700	
5848	0	32588	
5849	0	32668	
5850	0	32712	
5851	0	32348	
5852	0	32352	
5853	0	32421	
5854	0	32521	
5855	0	32632	
5856	0	32788	
5857	0	32904	
5858	0	32968	
5859	0	32985	
5860	0	33080	
5861	0	32936	
5862	0	32956	
5863	0	33094	
5864	0	33124	
5865	0	33028	
5866	0	32916	
5867	0	32694	
5868	0	32584	
5869	0	32580	
5870	0	32417	
5871	0	32248	
5872	0	32276	
5873	0	32520	
5874	0	32776	
5875	0	32900	
5876	0	33028	
5877	0	32972	
5878	0	32892	
5879	0	32860	
5880	0	32916	
5881	0	32928	
5882	0	33000	
5883	0	33080	
5884	0	33104	
5885	0	32928	
5886	0	32836	
5887	0	32832	
5888	0	32768	
5889	0	32552	
5890	0	32292	
5891	0	32096	
5892	0	32158	
5893	0	32317	
5894	0	32572	
5895	0	32876	
5896	0	33072	
5897	0	33088	
5898	0	33020	
5899	0	32992	
5900	0	32832	
5901	0	32932	
5902	0	32944	
5903	0	33028	
5904	0	33000	
5905	0	32964	
5906	0	32900	
5907	0	32860	
5908	0	32732	
5909	0	32564	
5910	0	32516	
5911	0	32348	
5912	0	32350	
5913	0	32548	
5914	0	32696	
5915	0	32736	
5916	0	32680	
5917	0	32833	
5918	0	32928	
5919	0	32976	
5920	0	32868	
5921	0	32964	
5922	0	33080	
5923	0	33140	
5924	0	33144	
5925	0	33045	
5926	0	32856	
5927	0	32752	
5928	0	32680	
5929	0	32426	
5930	0	32353	
5931	0	32288	
5932	0	32320	
5933	0	32632	
5934	0	32900	
5935	0	32996	
5936	0	32960	
5937	0	32821	
5938	0	32876	
5939	0	32812	
5940	0	32908	
5941	0	32916	
5942	0	33004	
5943	0	32996	
5944	0	33088	
5945	0	32912	
5946	0	32864	
5947	0	32752	
5948	0	32636	
5949	0	32488	
5950	0	32284	
5951	0	32285	
5952	0	32364	
5953	0	32584	
5954	0	32780	
5955	0	32772	
5956	0	32854	
5957	0	32940	
5958	0	32936	
5959	0	33008	
5960	0	33052	
5961	0	33008	
5962	0	32984	
5963	0	33036	
5964	0	33020	
5965	0	32952	
5966	0	32872	
5967	0	32800	
5968	0	32536	
5969	0	32388	
5970	0	32552	
5971	0	32424	
5972	0	32412	
5973	0	32596	
5974	0	32764	
5975	0	32728	
5976	0	32828	
5977	0	32948	
5978	0	32910	
5979	0	32836	
5980	0	32772	
5981	0	32847	
5982	0	32932	
5983	0	32933	
5984	0	33240	
5985	0	33212	
5986	0	32992	
5987	0	32720	
5988	0	32512	
5989	0	32336	
5990	0	32453	
5991	0	32476	
5992	0	32500	
5993	0	32614	
5994	0	32501	
5995	0	32668	
5996	0	32916	
5997	0	32969	
5998	0	32997	
5999	0	32912	
6000	0	32956	
6001	0	32932	
6002	0	32877	
6003	0	32972	
6004	0	33048	
6005	0	32948	
6006	0	32872	
6007	0	32760	
6008	0	32636	
6009	0	32412	
6010	0	32460	
6011	0	32401	
6012	0	32416	
6013	0	32652	
6014	0	32764	
6015	0	32845	
6016	0	32968	
6017	0	32924	
6018	0	32949	
6019	0	32868	
6020	0	32836	
6021	0	32856	
6022	0	32912	
6023	0	33024	
6024	0	33045	
6025	0	33076	
6026	0	32984	
6027	0	32844	
6028	0	32556	
6029	0	32444	
6030	0	32452	
6031	0	32404	
6032	0	32456	
6033	0	32522	
6034	0	32748	
6035	0	32858	
6036	0	32896	
6037	0	32836	
6038	0	32924	
6039	0	32948	
6040	0	32992	
6041	0	33028	
6042	0	32980	
6043	0	32940	
6044	0	33061	
6045	0	32840	
6046	0	32908	
6047	0	32756	
6048	0	32493	
6049	0	32380	
6050	0	32364	
6051	0	32408	
6052	0	32400	
6053	0	32484	
6054	0	32696	
6055	0	32904	
6056	0	32984	
6057	0	33004	
6058	0	33044	
6059	0	32964	
6060	0	33004	
6061	0	32968	
6062	0	33020	
6063	0	32984	
6064	0	32948	
6065	0	32901	
6066	0	32805	
6067	0	32836	
6068	0	32680	
6069	0	32492	
6070	0	32360	
6071	0	32284	
6072	0	32218	
6073	0	32536	
6074	0	32736	
6075	0	32872	
6076	0	33020	
6077	0	33052	
6078	0	32917	
6079	0	32932	
6080	0	32900	
6081	0	32940	
6082	0	33052	
6083	0	33060	
6084	0	33070	
6085	0	32904	
6086	0	32696	
6087	0	32640	
6088	0	32577	
6089	0	32540	
6090	0	32444	
6091	0	32334	
6092	0	32368	
6093	0	32552	
6094	0	32768	
6095	0	32912	
6096	0	32972	
6097	0	33072	
6098	0	32980	
6099	0	32960	
6100	0	32948	
6101	0	32984	
6102	0	32956	
6103	0	32988	
6104	0	33000	
6105	0	32904	
6106	0	32840	
6107	0	32728	
6108	0	32662	
6109	0	32476	
6110	0	32556	
6111	0	32644	
6112	0	32604	
6113	0	32624	
6114	0	32420	
6115	0	32480	
6116	0	32700	
6117	0	32808	
6118	0	32896	
6119	0	33028	
6120	0	33060	
6121	0	33070	
6122	0	33088	
6123	0	33020	
6124	0	33144	
6125	0	33028	
6126	0	32868	
6127	0	32724	
6128	0	32600	
6129	0	32336	
6130	0	32284	
6131	0	32260	
6132	0	32336	
6133	0	32568	
6134	0	32736	
6135	0	32804	
6136	0	32884	
6137	0	33004	
6138	0	33124	
6139	0	32952	
6140	0	32885	
6141	0	33000	
6142	0	32968	
6143	0	33120	
6144	0	33116	
6145	0	33088	
6146	0	32872	
6147	0	32820	
6148	0	32663	
6149	0	32462	
6150	0	32316	
6151	0	32316	
6152	0	32340	
6153	0	32484	
6154	0	32616	
6155	0	32832	
6156	0	32852	
6157	0	32872	
6158	0	32960	
6159	0	32972	
6160	0	32976	
6161	0	33068	
6162	0	32989	
6163	0	33020	
6164	0	33092	
6165	0	32960	
6166	0	32684	
6167	0	32560	
6168	0	32600	
6169	0	32568	
6170	0	32508	
6171	0	32429	
6172	0	32464	
6173	0	32600	
6174	0	32628	
6175	0	32752	
6176	0	32808	
6177	0	32900	
6178	0	32908	
6179	0	33016	
6180	0	33044	
6181	0	33036	
6182	0	32997	
6183	0	33045	
6184	0	33024	
6185	0	32940	
6186	0	32780	
6187	0	32730	
6188	0	32632	
6189	0	32485	
6190	0	32404	
6191	0	32376	
6192	0	32376	
6193	0	32588	
6194	0	32748	
6195	0	32836	
6196	0	33045	
6197	0	32896	
6198	0	32864	
6199	0	32901	
6200	0	32921	
6201	0	33060	
6202	0	33080	
6203	0	32968	
6204	0	32972	
6205	0	32840	
6206	0	32780	
6207	0	32704	
6208	0	32576	
6209	0	32548	
6210	0	32468	
6211	0	32284	
6212	0	32332	
6213	0	32540	
6214	0	32684	
6215	0	32892	
6216	0	33044	
6217	0	33076	
6218	0	32814	
6219	0	32836	
6220	0	32842	
6221	0	32836	
6222	0	32996	
6223	0	32984	
6224	0	33164	
6225	0	33038	
6226	0	32812	
6227	0	32736	
6228	0	32716	
6229	0	32400	
6230	0	32332	
6231	0	32373	
6232	0	32432	
6233	0	32812	
6234	0	32968	
6235	0	32908	
6236	0	32960	
6237	0	32856	
6238	0	32684	
6239	0	32636	
6240	0	32744	
6241	0	32862	
6242	0	33036	
6243	0	33136	
6244	0	33060	
6245	0	33108	
6246	0	32916	
6247	0	32808	
6248	0	32680	
6249	0	32464	
6250	0	32248	
6251	0	32284	
6252	0	32432	
6253	0	32545	
6254	0	32684	
6255	0	32784	
6256	0	32924	
6257	0	32964	
6258	0	32860	
6259	0	32969	
6260	0	33072	
6261	0	32988	
6262	0	33024	
6263	0	33088	
6264	0	33092	
6265	0	33016	
6266	0	32672	
6267	0	32592	
6268	0	32476	
6269	0	32448	
6270	0	32388	
6271	0	32440	
6272	0	32465	
6273	0	32652	
6274	0	32740	
6275	0	32776	
6276	0	32840	
6277	0	32896	
6278	0	32981	
6279	0	32996	
6280	0	33128	
6281	0	33064	
6282	0	33068	
6283	0	32976	
6284	0	32977	
6285	0	32876	
6286	0	32700	
6287	0	32580	
6288	0	32629	
6289	0	32616	
6290	0	32524	
6291	0	32428	
6292	0	32416	
6293	0	32508	
6294	0	32604	
6295	0	32748	
6296	0	32868	
6297	0	32864	
6298	0	32932	
6299	0	33034	
6300	0	33036	
6301	0	33108	
6302	0	33012	
6303	0	33024	
6304	0	32944	
6305	0	32932	
6306	0	32820	
6307	0	32668	
6308	0	32572	
6309	0	32532	
6310	0	32396	
6311	0	32400	
6312	0	32432	
6313	0	32564	
6314	0	32660	
6315	0	32780	
6316	0	32896	
6317	0	32960	
6318	0	32900	
6319	0	32892	
6320	0	32900	
6321	0	32884	
6322	0	33120	
6323	0	33152	
6324	0	33152	
6325	0	33336	
6326	0	33316	
6327	0	32984	
6328	0	32524	
6329	0	31948	
6330	0	31968	
6331	0	31964	
6332	0	32158	
6333	0	32512	
6334	0	32884	
6335	0	32912	
6336	0	32840	
6337	0	32728	
6338	0	32836	
6339	0	32932	
6340	0	33144	
6341	0	33140	
6342	0	33077	
6343	0	33108	
6344	0	33157	
6345	0	33036	
6346	0	32852	
6347	0	32628	
6348	0	32548	
6349	0	32460	
6350	0	32480	
6351	0	32448	
6352	0	32380	
6353	0	32540	
6354	0	32652	
6355	0	32764	
6356	0	32892	
6357	0	32940	
6358	0	32984	
6359	0	32980	
6360	0	32996	
6361	0	33056	
6362	0	32912	
6363	0	33004	
6364	0	33044	
6365	0	32888	
6366	0	32728	
6367	0	32688	
6368	0	32636	
6369	0	32536	
6370	0	32424	
6371	0	32306	
6372	0	32416	
6373	0	32512	
6374	0	32680	
6375	0	32729	
6376	0	32920	
6377	0	32940	
6378	0	32949	
6379	0	32956	
6380	0	33052	
6381	0	33128	
6382	0	33141	
6383	0	33128	
6384	0	32908	
6385	0	32800	
6386	0	32616	
6387	0	32604	
6388	0	32580	
6389	0	32588	
6390	0	32508	
6391	0	32420	
6392	0	32472	
6393	0	32584	
6394	0	32760	
6395	0	32748	
6396	0	32748	
6397	0	32833	
6398	0	33100	
6399	0	32984	
6400	0	32912	
6401	0	32876	
6402	0	32852	
6403	0	33036	
6404	0	33116	
6405	0	33094	
6406	0	32872	
6407	0	32668	
6408	0	32680	
6409	0	32604	
6410	0	32508	
6411	0	32204	
6412	0	32040	
6413	0	32432	
6414	0	32656	
6415	0	32836	
6416	0	32976	
6417	0	33045	
6418	0	33144	
6419	0	33072	
6420	0	33068	
6421	0	32924	
6422	0	32792	
6423	0	32834	
6424	0	33088	
6425	0	33060	
6426	0	32826	
6427	0	32716	
6428	0	32612	
6429	0	32420	
6430	0	32392	
6431	0	32388	
6432	0	32412	
6433	0	32637	
6434	0	32685	
6435	0	32786	
6436	0	32924	
6437	0	33004	
6438	0	33028	
6439	0	32965	
6440	0	32996	
6441	0	33060	
6442	0	33044	
6443	0	33000	
6444	0	32908	
6445	0	32908	
6446	0	32836	
6447	0	32664	
6448	0	32646	
6449	0	32449	
6450	0	32344	
6451	0	32444	
6452	0	32532	
6453	0	32646	
6454	0	32676	
6455	0	32724	
6456	0	32836	
6457	0	32953	
6458	0	33016	
6459	0	33024	
6460	0	32988	
6461	0	33045	
6462	0	32956	
6463	0	33024	
6464	0	32990	
6465	0	32920	
6466	0	32837	
6467	0	32696	
6468	0	32580	
6469	0	32392	
6470	0	32340	
6471	0	32340	
6472	0	32476	
6473	0	32564	
6474	0	32756	
6475	0	32781	
6476	0	32869	
6477	0	32972	
6478	0	33082	
6479	0	33130	
6480	0	33132	
6481	0	32900	
6482	0	32772	
6483	0	33008	
6484	0	32916	
6485	0	32944	
6486	0	32816	
6487	0	32684	
6488	0	32616	
6489	0	32581	
6490	0	32420	
6491	0	32316	
6492	0	32416	
6493	0	32540	
6494	0	32692	
6495	0	32832	
6496	0	32869	
6497	0	32894	
6498	0	32976	
6499	0	33008	
6500	0	33136	
6501	0	33129	
6502	0	32948	
6503	0	33000	
6504	0	33040	
6505	0	32928	
6506	0	32661	
6507	0	32620	
6508	0	32644	
6509	0	32564	
6510	0	32392	
6511	0	32348	
6512	0	32436	
6513	0	32612	
6514	0	32720	
6515	0	32768	
6516	0	32796	
6517	0	32808	
6518	0	32928	
6519	0	32988	
6520	0	33120	
6521	0	33061	
6522	0	32940	
6523	0	33068	
6524	0	33128	
6525	0	33038	
6526	0	32752	
6527	0	32529	
6528	0	32588	
6529	0	32640	
6530	0	32532	
6531	0	32396	
6532	0	32452	
6533	0	32548	
6534	0	32704	
6535	0	32776	
6536	0	32885	
6537	0	32908	
6538	0	32780	
6539	0	32864	
6540	0	32893	
6541	0	32896	
6542	0	33056	
6543	0	33216	
6544	0	33088	
6545	0	33000	
6546	0	32781	
6547	0	32628	
6548	0	32612	
6549	0	32476	
6550	0	32452	
6551	0	32388	
6552	0	32520	
6553	0	32488	
6554	0	32612	
6555	0	32684	
6556	0	32820	
6557	0	32872	
6558	0	32924	
6559	0	32944	
6560	0	33036	
6561	0	33056	
6562	0	33066	
6563	0	33224	
6564	0	33157	
6565	0	33021	
6566	0	32784	
6567	0	32720	
6568	0	32632	
6569	0	32528	
6570	0	32444	
6571	0	32276	
6572	0	32324	
6573	0	32596	
6574	0	32764	
6575	0	32772	
6576	0	32788	
6577	0	32789	
6578	0	32736	
6579	0	32920	
6580	0	32936	
6581	0	32936	
6582	0	32992	
6583	0	33020	
6584	0	33172	
6585	0	33092	
6586	0	32840	
6587	0	32672	
6588	0	32548	
6589	0	32580	
6590	0	32461	
6591	0	32388	
6592	0	32496	
6593	0	32564	
6594	0	32676	
6595	0	32772	
6596	0	32824	
6597	0	32916	
6598	0	32864	
6599	0	32960	
6600	0	33116	
6601	0	33124	
6602	0	33088	
6603	0	32960	
6604	0	32921	
6605	0	32860	
6606	0	32745	
6607	0	32748	
6608	0	32740	
6609	0	32604	
6610	0	32460	
6611	0	32416	
6612	0	32400	
6613	0	32581	
6614	0	32717	
6615	0	32768	
6616	0	32644	
6617	0	32816	
6618	0	32928	
6619	0	32980	
6620	0	32956	
6621	0	32896	
6622	0	32896	
6623	0	33060	
6624	0	33004	
6625	0	32916	
6626	0	32852	
6627	0	32740	
6628	0	32696	
6629	0	32628	
6630	0	32428	
6631	0	32464	
6632	0	32414	
6633	0	32516	
6634	0	32640	
6635	0	32760	
6636	0	32896	
6637	0	32919	
6638	0	32998	
6639	0	33012	
6640	0	33024	
6641	0	32836	
6642	0	32868	
6643	0	33032	
6644	0	33124	
6645	0	32936	
6646	0	32788	
6647	0	32668	
6648	0	32470	
6649	0	32430	
6650	0	32380	
6651	0	32424	
6652	0	32528	
6653	0	32628	
6654	0	32828	
6655	0	32764	
6656	0	32676	
6657	0	32724	
6658	0	32888	
6659	0	33064	
6660	0	33024	
6661	0	33024	
6662	0	33008	
6663	0	33082	
6664	0	33088	
6665	0	33097	
6666	0	32832	
6667	0	32606	
6668	0	32522	
6669	0	32532	
6670	0	32420	
6671	0	32372	
6672	0	32444	
6673	0	32596	
6674	0	32584	
6675	0	32598	
6676	0	32836	
6677	0	32873	
6678	0	32940	
6679	0	32960	
6680	0	32988	
6681	0	33068	
6682	0	33044	
6683	0	33116	
6684	0	33064	
6685	0	32981	
6686	0	32708	
6687	0	32664	
6688	0	32616	
6689	0	32576	
6690	0	32506	
6691	0	32456	
6692	0	32441	
6693	0	32724	
6694	0	32744	
6695	0	32640	
6696	0	32718	
6697	0	32752	
6698	0	32824	
6699	0	32928	
6700	0	32980	
6701	0	33060	
6702	0	33053	
6703	0	33040	
6704	0	33060	
6705	0	33088	
6706	0	32888	
6707	0	32684	
6708	0	32636	
6709	0	32620	
6710	0	32383	
6711	0	32340	
6712	0	32440	
6713	0	32584	
6714	0	32636	
6715	0	32752	
6716	0	32976	
6717	0	33004	
6718	0	32932	
6719	0	33052	
6720	0	32964	
6721	0	32740	
6722	0	32852	
6723	0	32992	
6724	0	33004	
6725	0	32924	
6726	0	32852	
6727	0	32722	
6728	0	32664	
6729	0	32540	
6730	0	32456	
6731	0	32396	
6732	0	32460	
6733	0	32540	
6734	0	32640	
6735	0	32768	
6736	0	32908	
6737	0	32920	
6738	0	32868	
6739	0	32888	
6740	0	32956	
6741	0	33033	
6742	0	33112	
6743	0	33176	
6744	0	33000	
6745	0	32832	
6746	0	32646	
6747	0	32732	
6748	0	32748	
6749	0	32572	
6750	0	32344	
6751	0	32254	
6752	0	32385	
6753	0	32552	
6754	0	32780	
6755	0	32844	
6756	0	32844	
6757	0	32988	
6758	0	33024	
6759	0	32912	
6760	0	32880	
6761	0	32844	
6762	0	32916	
6763	0	33072	
6764	0	33080	
6765	0	33016	
6766	0	32900	
6767	0	32664	
6768	0	32596	
6769	0	32653	
6770	0	32452	
6771	0	32396	
6772	0	32384	
6773	0	32564	
6774	0	32736	
6775	0	32828	
6776	0	32852	
6777	0	32824	
6778	0	32873	
6779	0	32888	
6780	0	32864	
6781	0	32844	
6782	0	32892	
6783	0	32948	
6784	0	33016	
6785	0	33020	
6786	0	32768	
6787	0	32700	
6788	0	32702	
6789	0	32495	
6790	0	32488	
6791	0	32548	
6792	0	32552	
6793	0	32536	
6794	0	32632	
6795	0	32780	
6796	0	32900	
6797	0	32896	
6798	0	32944	
6799	0	32968	
6800	0	32956	
6801	0	32908	
6802	0	32940	
6803	0	33004	
6804	0	33032	
6805	0	32876	
6806	0	32736	
6807	0	32692	
6808	0	32669	
6809	0	32532	
6810	0	32377	
6811	0	32380	
6812	0	32378	
6813	0	32640	
6814	0	32713	
6815	0	32832	
6816	0	32920	
6817	0	32980	
6818	0	32904	
6819	0	32880	
6820	0	32956	
6821	0	33040	
6822	0	32964	
6823	0	32924	
6824	0	32950	
6825	0	32988	
6826	0	32912	
6827	0	32732	
6828	0	32584	
6829	0	32508	
6830	0	32500	
6831	0	32454	
6832	0	32480	
6833	0	32516	
6834	0	32676	
6835	0	32724	
6836	0	32876	
6837	0	32872	
6838	0	32952	
6839	0	32877	
6840	0	32952	
6841	0	33045	
6842	0	32944	
6843	0	33120	
6844	0	33136	
6845	0	32988	
6846	0	32728	
6847	0	32656	
6848	0	32560	
6849	0	32540	
6850	0	32532	
6851	0	32308	
6852	0	32258	
6853	0	32420	
6854	0	32644	
6855	0	32800	
6856	0	32928	
6857	0	32980	
6858	0	32860	
6859	0	32860	
6860	0	32972	
6861	0	33038	
6862	0	33056	
6863	0	33088	
6864	0	33068	
6865	0	33086	
6866	0	32840	
6867	0	32760	
6868	0	32696	
6869	0	32390	
6870	0	32404	
6871	0	32384	
6872	0	32512	
6873	0	32516	
6874	0	32532	
6875	0	32748	
6876	0	32908	
6877	0	33020	
6878	0	32805	
6879	0	32636	
6880	0	32700	
6881	0	32981	
6882	0	33096	
6883	0	33188	
6884	0	33117	
6885	0	33096	
6886	0	32922	
6887	0	32704	
6888	0	32504	
6889	0	32493	
6890	0	32392	
6891	0	32408	
6892	0	32556	
6893	0	32644	
6894	0	32684	
6895	0	32724	
6896	0	32844	
6897	0	32944	
6898	0	32996	
6899	0	32920	
6900	0	32844	
6901	0	32836	
6902	0	32956	
6903	0	33200	
6904	0	33252	
6905	0	33256	
6906	0	33044	
6907	0	32669	
6908	0	32400	
6909	0	32284	
6910	0	32224	
6911	0	32304	
6912	0	32424	
6913	0	32624	
6914	0	32724	
6915	0	32776	
6916	0	32806	
6917	0	32832	
6918	0	32848	
6919	0	32984	
6920	0	33044	
6921	0	33020	
6922	0	33044	
6923	0	33036	
6924	0	33014	
6925	0	33037	
6926	0	32808	
6927	0	32676	
6928	0	32608	
6929	0	32544	
6930	0	32548	
6931	0	32328	
6932	0	32252	
6933	0	32424	
6934	0	32636	
6935	0	32836	
6936	0	32804	
6937	0	32908	
6938	0	32968	
6939	0	33028	
6940	0	33065	
6941	0	33124	
6942	0	33044	
6943	0	33022	
6944	0	33020	
6945	0	32988	
6946	0	32740	
6947	0	32692	
6948	0	32612	
6949	0	32392	
6950	0	32253	
6951	0	32372	
6952	0	32484	
6953	0	32568	
6954	0	32804	
6955	0	32887	
6956	0	32964	
6957	0	32916	
6958	0	32880	
6959	0	32864	
6960	0	33080	
6961	0	32996	
6962	0	32928	
6963	0	32997	
6964	0	32996	
6965	0	32932	
6966	0	32732	
6967	0	32800	
6968	0	32680	
6969	0	32544	
6970	0	32353	
6971	0	32116	
6972	0	32184	
6973	0	32504	
6974	0	32900	
6975	0	32852	
6976	0	32952	
6977	0	32968	
6978	0	32989	
6979	0	32988	
6980	0	32996	
6981	0	32903	
6982	0	33036	
6983	0	33132	
6984	0	33110	
6985	0	32985	
6986	0	32748	
6987	0	32676	
6988	0	32645	
6989	0	32608	
6990	0	32520	
6991	0	32336	
6992	0	32220	
6993	0	32524	
6994	0	32652	
6995	0	32736	
6996	0	32840	
6997	0	32940	
6998	0	32908	
6999	0	33024	
7000	0	33017	
7001	0	33060	
7002	0	33012	
7003	0	33017	
7004	0	33016	
7005	0	32901	
7006	0	32840	
7007	0	32760	
7008	0	32668	
7009	0	32536	
7010	0	32500	
7011	0	32436	
7012	0	32452	
7013	0	32532	
7014	0	32672	
7015	0	32732	
7016	0	32772	
7017	0	32832	
7018	0	32936	
7019	0	33072	
7020	0	33032	
7021	0	32976	
7022	0	32958	
7023	0	33000	
7024	0	33140	
7025	0	33072	
7026	0	32876	
7027	0	32708	
7028	0	32556	
7029	0	32572	
7030	0	32612	
7031	0	32352	
7032	0	32116	
7033	0	32208	
7034	0	32493	
7035	0	32637	
7036	0	32888	
7037	0	33060	
7038	0	33116	
7039	0	33140	
7040	0	33044	
7041	0	33016	
7042	0	32894	
7043	0	32920	
7044	0	33028	
7045	0	32982	
7046	0	32940	
7047	0	32836	
7048	0	32488	
7049	0	32376	
7050	0	32432	
7051	0	32460	
7052	0	32512	
7053	0	32673	
7054	0	32868	
7055	0	32928	
7056	0	32892	
7057	0	32725	
7058	0	32720	
7059	0	32932	
7060	0	32868	
7061	0	33004	
7062	0	32976	
7063	0	33020	
7064	0	33112	
7065	0	33012	
7066	0	32804	
7067	0	32656	
7068	0	32556	
7069	0	32504	
7070	0	32564	
7071	0	32496	
7072	0	32464	
7073	0	32540	
7074	0	32720	
7075	0	32805	
7076	0	32840	
7077	0	32832	
7078	0	32892	
7079	0	32912	
7080	0	33036	
7081	0	33052	
7082	0	33044	
7083	0	33006	
7084	0	33008	
7085	0	33032	
7086	0	32752	
7087	0	32620	
7088	0	32588	
7089	0	32468	
7090	0	32416	
7091	0	32394	
7092	0	32388	
7093	0	32636	
7094	0	32709	
7095	0	32812	
7096	0	32920	
7097	0	32920	
7098	0	32956	
7099	0	32900	
7100	0	32952	
7101	0	32928	
7102	0	33040	
7103	0	33092	
7104	0	33096	
7105	0	32968	
7106	0	32844	
7107	0	32872	
7108	0	32716	
7109	0	32461	
7110	0	32268	
7111	0	32268	
7112	0	32372	
7113	0	32396	
7114	0	32516	
7115	0	32712	
7116	0	32772	
7117	0	32832	
7118	0	32908	
7119	0	33132	
7120	0	33308	
7121	0	33244	
7122	0	33000	
7123	0	33048	
7124	0	33068	
7125	0	32879	
7126	0	32653	
7127	0	32544	
7128	0	32636	
7129	0	32577	
7130	0	32460	
7131	0	32349	
7132	0	32408	
7133	0	32504	
7134	0	32616	
7135	0	32836	
7136	0	33040	
7137	0	32948	
7138	0	32886	
7139	0	32888	
7140	0	32932	
7141	0	32982	
7142	0	32940	
7143	0	33078	
7144	0	33036	
7145	0	32996	
7146	0	32792	
7147	0	32696	
7148	0	32652	
7149	0	32688	
7150	0	32580	
7151	0	32552	
7152	0	32436	
7153	0	32344	
7154	0	32452	
7155	0	32636	
7156	0	32909	
7157	0	33112	
7158	0	33000	
7159	0	32892	
7160	0	32696	
7161	0	32816	
7162	0	32968	
7163	0	33124	
7164	0	33156	
7165	0	32980	
7166	0	32796	
7167	0	32744	
7168	0	32672	
7169	0	32554	
7170	0	32416	
7171	0	32388	
7172	0	32408	
7173	0	32576	
7174	0	32741	
7175	0	32828	
7176	0	32858	
7177	0	32848	
7178	0	32828	
7179	0	33008	
7180	0	33032	
7181	0	32932	
7182	0	32996	
7183	0	33000	
7184	0	33108	
7185	0	32924	
7186	0	32728	
7187	0	32628	
7188	0	32600	
7189	0	32476	
7190	0	32489	
7191	0	32460	
7192	0	32548	
7193	0	32636	
7194	0	32848	
7195	0	32864	
7196	0	32728	
7197	0	32757	
7198	0	32808	
7199	0	32893	
7200	0	33016	
7201	0	33102	
7202	0	33008	
7203	0	32934	
7204	0	32856	
7205	0	32796	
7206	0	32712	
7207	0	32836	
7208	0	32892	
7209	0	32636	
7210	0	32604	
7211	0	32296	
7212	0	32328	
7213	0	32428	
7214	0	32592	
7215	0	32832	
7216	0	33018	
7217	0	33000	
7218	0	33020	
7219	0	32958	
7220	0	33048	
7221	0	32912	
7222	0	32892	
7223	0	33028	
7224	0	33076	
7225	0	32948	
7226	0	32712	
7227	0	32628	
7228	0	32504	
7229	0	32406	
7230	0	32340	
7231	0	32300	
7232	0	32441	
7233	0	32589	
7234	0	32820	
7235	0	32936	
7236	0	32944	
7237	0	32980	
7238	0	32984	
7239	0	32964	
7240	0	32864	
7241	0	32918	
7242	0	32948	
7243	0	33056	
7244	0	33084	
7245	0	32956	
7246	0	32778	
7247	0	32629	
7248	0	32562	
7249	0	32428	
7250	0	32356	
7251	0	32321	
7252	0	32416	
7253	0	32576	
7254	0	32776	
7255	0	32784	
7256	0	33068	
7257	0	33080	
7258	0	32980	
7259	0	32916	
7260	0	32972	
7261	0	33048	
7262	0	33000	
7263	0	33000	
7264	0	33040	
7265	0	32932	
7266	0	32648	
7267	0	32532	
7268	0	32596	
7269	0	32501	
7270	0	32508	
7271	0	32316	
7272	0	32461	
7273	0	32592	
7274	0	32644	
7275	0	32696	
7276	0	32844	
7277	0	32860	
7278	0	32960	
7279	0	33124	
7280	0	33360	
7281	0	33116	
7282	0	33080	
7283	0	33177	
7284	0	33068	
7285	0	32808	
7286	0	32672	
7287	0	32540	
7288	0	32512	
7289	0	32432	
7290	0	32400	
7291	0	32376	
7292	0	32484	
7293	0	32502	
7294	0	32708	
7295	0	32820	
7296	0	32857	
7297	0	32834	
7298	0	32932	
7299	0	33080	
7300	0	33048	
7301	0	33068	
7302	0	32864	
7303	0	32932	
7304	0	32909	
7305	0	33044	
7306	0	32908	
7307	0	32700	
7308	0	32724	
7309	0	32736	
7310	0	32608	
7311	0	32324	
7312	0	32292	
7313	0	32244	
7314	0	32456	
7315	0	32697	
7316	0	32900	
7317	0	32920	
7318	0	32884	
7319	0	32976	
7320	0	33056	
7321	0	33100	
7322	0	33076	
7323	0	33096	
7324	0	33084	
7325	0	32909	
7326	0	32661	
7327	0	32632	
7328	0	32568	
7329	0	32506	
7330	0	32424	
7331	0	32472	
7332	0	32509	
7333	0	32644	
7334	0	32808	
7335	0	32830	
7336	0	32789	
7337	0	32792	
7338	0	32812	
7339	0	32926	
7340	0	32968	
7341	0	33004	
7342	0	32920	
7343	0	33081	
7344	0	33144	
7345	0	32892	
7346	0	32752	
7347	0	32636	
7348	0	32668	
7349	0	32560	
7350	0	32508	
7351	0	32345	
7352	0	32492	
7353	0	32526	
7354	0	32640	
7355	0	32740	
7356	0	32778	
7357	0	32912	
7358	0	32796	
7359	0	32840	
7360	0	33104	
7361	0	33456	
7362	0	33488	
7363	0	33202	
7364	0	32720	
7365	0	32612	
7366	0	32462	
7367	0	32444	
7368	0	32564	
7369	0	32528	
7370	0	32420	
7371	0	32452	
7372	0	32584	
7373	0	32644	
7374	0	32604	
7375	0	32772	
7376	0	32860	
7377	0	32944	
7378	0	32916	
7379	0	32936	
7380	0	32988	
7381	0	32966	
7382	0	33040	
7383	0	33040	
7384	0	33120	
7385	0	33140	
7386	0	32853	
7387	0	32700	
7388	0	32588	
7389	0	32464	
7390	0	32384	
7391	0	32341	
7392	0	32428	
7393	0	32528	
7394	0	32688	
7395	0	32772	
7396	0	32836	
7397	0	32884	
7398	0	32941	
7399	0	33093	
7400	0	33088	
7401	0	33036	
7402	0	32974	
7403	0	32980	
7404	0	33124	
7405	0	33056	
7406	0	32916	
7407	0	32760	
7408	0	32604	
7409	0	32436	
7410	0	32300	
7411	0	32180	
7412	0	32196	
7413	0	32372	
7414	0	32696	
7415	0	32848	
7416	0	32911	
7417	0	32960	
7418	0	33140	
7419	0	33065	
7420	0	32972	
7421	0	33036	
7422	0	33073	
7423	0	33088	
7424	0	33124	
7425	0	33044	
7426	0	32804	
7427	0	32564	
7428	0	32537	
7429	0	32636	
7430	0	32496	
7431	0	32300	
7432	0	32198	
7433	0	32300	
7434	0	32568	
7435	0	32752	
7436	0	32964	
7437	0	33066	
7438	0	32992	
7439	0	32988	
7440	0	32929	
7441	0	32944	
7442	0	33088	
7443	0	33204	
7444	0	33064	
7445	0	32885	
7446	0	32841	
7447	0	32654	
7448	0	32644	
7449	0	32504	
7450	0	32448	
7451	0	32353	
7452	0	32376	
7453	0	32528	
7454	0	32732	
7455	0	32832	
7456	0	32844	
7457	0	32944	
7458	0	32904	
7459	0	32968	
7460	0	32940	
7461	0	32960	
7462	0	33028	
7463	0	33132	
7464	0	33056	
7465	0	32992	
7466	0	32868	
7467	0	32612	
7468	0	32536	
7469	0	32468	
7470	0	32528	
7471	0	32358	
7472	0	32397	
7473	0	32342	
7474	0	32528	
7475	0	32628	
7476	0	32792	
7477	0	32962	
7478	0	33056	
7479	0	32984	
7480	0	33024	
7481	0	32960	
7482	0	33000	
7483	0	33148	
7484	0	33078	
7485	0	33001	
7486	0	32888	
7487	0	32752	
7488	0	32576	
7489	0	32356	
7490	0	32344	
7491	0	32244	
7492	0	32300	
7493	0	32704	
7494	0	32972	
7495	0	32988	
7496	0	32900	
7497	0	32894	
7498	0	32848	
7499	0	32868	
7500	0	32868	
7501	0	33040	
7502	0	33112	
7503	0	33125	
7504	0	32985	
7505	0	32908	
7506	0	32758	
7507	0	32684	
7508	0	32646	
7509	0	32620	
7510	0	32440	
7511	0	32364	
7512	0	32384	
7513	0	32496	
7514	0	32788	
7515	0	32852	
7516	0	32775	
7517	0	32772	
7518	0	32884	
7519	0	32956	
7520	0	33036	
7521	0	33056	
7522	0	33096	
7523	0	32992	
7524	0	32972	
7525	0	32965	
7526	0	32868	
7527	0	32656	
7528	0	32500	
7529	0	32384	
7530	0	32320	
7531	0	32514	
7532	0	32622	
7533	0	32520	
7534	0	32688	
7535	0	32756	
7536	0	32840	
7537	0	32992	
7538	0	33088	
7539	0	32980	
7540	0	32924	
7541	0	32868	
7542	0	32896	
7543	0	33060	
7544	0	33140	
7545	0	33132	
7546	0	33020	
7547	0	32893	
7548	0	32536	
7549	0	32288	
7550	0	32285	
7551	0	32468	
7552	0	32416	
7553	0	32484	
7554	0	32652	
7555	0	32716	
7556	0	32826	
7557	0	32696	
7558	0	32848	
7559	0	33152	
7560	0	33204	
7561	0	33020	
7562	0	32860	
7563	0	32908	
7564	0	33052	
7565	0	33009	
7566	0	32776	
7567	0	32596	
7568	0	32628	
7569	0	32586	
7570	0	32572	
7571	0	32484	
7572	0	32364	
7573	0	32468	
7574	0	32692	
7575	0	32746	
7576	0	32884	
7577	0	33260	
7578	0	33200	
7579	0	32748	
7580	0	32628	
7581	0	32676	
7582	0	32892	
7583	0	33156	
7584	0	33188	
7585	0	33025	
7586	0	32716	
7587	0	32600	
7588	0	32500	
7589	0	32518	
7590	0	32384	
7591	0	32456	
7592	0	32548	
7593	0	32604	
7594	0	32672	
7595	0	32780	
7596	0	32868	
7597	0	32941	
7598	0	32936	
7599	0	32968	
7600	0	32936	
7601	0	33004	
7602	0	33020	
7603	0	33156	
7604	0	33028	
7605	0	32964	
7606	0	32812	
7607	0	32640	
7608	0	32600	
7609	0	32424	
7610	0	32400	
7611	0	32508	
7612	0	32604	
7613	0	32596	
7614	0	32708	
7615	0	32700	
7616	0	32796	
7617	0	32800	
7618	0	32964	
7619	0	32928	
7620	0	32932	
7621	0	33061	
7622	0	33232	
7623	0	33220	
7624	0	32892	
7625	0	32656	
7626	0	32652	
7627	0	32648	
7628	0	32536	
7629	0	32448	
7630	0	32413	
7631	0	32504	
7632	0	32608	
7633	0	32592	
7634	0	32600	
7635	0	32720	
7636	0	32724	
7637	0	32912	
7638	0	33012	
7639	0	33096	
7640	0	32952	
7641	0	32868	
7642	0	32904	
7643	0	33054	
7644	0	33044	
7645	0	33048	
7646	0	33100	
7647	0	32844	
7648	0	32601	
7649	0	32508	
7650	0	32320	
7651	0	32272	
7652	0	32416	
7653	0	32628	
7654	0	32688	
7655	0	32708	
7656	0	32612	
7657	0	32840	
7658	0	32940	
7659	0	32944	
7660	0	32984	
7661	0	33036	
7662	0	33074	
7663	0	33008	
7664	0	32996	
7665	0	32916	
7666	0	32916	
7667	0	32648	
7668	0	32664	
7669	0	32480	
7670	0	32420	
7671	0	32384	
7672	0	32476	
7673	0	32585	
7674	0	32664	
7675	0	32776	
7676	0	32896	
7677	0	32908	
7678	0	32996	
7679	0	32956	
7680	0	33036	
7681	0	32949	
7682	0	32976	
7683	0	33060	
7684	0	33076	
7685	0	32932	
7686	0	32828	
7687	0	32685	
7688	0	32588	
7689	0	32445	
7690	0	32396	
7691	0	32364	
7692	0	32272	
7693	0	32457	
7694	0	32744	
7695	0	32832	
7696	0	32984	
7697	0	33084	
7698	0	33016	
7699	0	32940	
7700	0	32860	
7701	0	32952	
7702	0	32902	
7703	0	32932	
7704	0	32948	
7705	0	32972	
7706	0	32980	
7707	0	32800	
7708	0	32544	
7709	0	32460	
7710	0	32304	
7711	0	32296	
7712	0	32413	
7713	0	32660	
7714	0	32820	
7715	0	32860	
7716	0	32772	
7717	0	32772	
7718	0	32888	
7719	0	32880	
7720	0	32912	
7721	0	32996	
7722	0	33128	
7723	0	33276	
7724	0	33208	
7725	0	33064	
7726	0	32800	
7727	0	32556	
7728	0	32464	
7729	0	32448	
7730	0	32308	
7731	0	32352	
7732	0	32488	
7733	0	32664	
7734	0	32864	
7735	0	32752	
7736	0	32820	
7737	0	32840	
7738	0	32846	
7739	0	32880	
7740	0	33004	
7741	0	32952	
7742	0	32936	
7743	0	33116	
7744	0	33244	
7745	0	33032	
7746	0	32764	
7747	0	32556	
7748	0	32504	
7749	0	32476	
7750	0	32432	
7751	0	32532	
7752	0	32495	
7753	0	32584	
7754	0	32636	
7755	0	32664	
7756	0	32724	
7757	0	32876	
7758	0	32940	
7759	0	33108	
7760	0	32988	
7761	0	33017	
7762	0	33032	
7763	0	33184	
7764	0	33148	
7765	0	32976	
7766	0	32741	
7767	0	32604	
7768	0	32557	
7769	0	32484	
7770	0	32512	
7771	0	32408	
7772	0	32468	
7773	0	32560	
7774	0	32600	
7775	0	32748	
7776	0	32932	
7777	0	32704	
7778	0	32692	
7779	0	32920	
7780	0	33020	
7781	0	33066	
7782	0	33096	
7783	0	33048	
7784	0	33030	
7785	0	33045	
7786	0	32832	
7787	0	32708	
7788	0	32625	
7789	0	32477	
7790	0	32339	
7791	0	32320	
7792	0	32374	
7793	0	32544	
7794	0	32740	
7795	0	32774	
7796	0	32912	
7797	0	32944	
7798	0	32816	
7799	0	32944	
7800	0	32992	
7801	0	33052	
7802	0	33000	
7803	0	33033	
7804	0	33016	
7805	0	32944	
7806	0	32837	
7807	0	32680	
7808	0	32648	
7809	0	32512	
7810	0	32432	
7811	0	32360	
7812	0	32450	
7813	0	32700	
7814	0	32892	
7815	0	32852	
7816	0	32757	
7817	0	32704	
7818	0	32820	
7819	0	32878	
7820	0	33152	
7821	0	33057	
7822	0	32968	
7823	0	33092	
7824	0	33108	
7825	0	32956	
7826	0	32764	
7827	0	32652	
7828	0	32556	
7829	0	32424	
7830	0	32341	
7831	0	32372	
7832	0	32504	
7833	0	32740	
7834	0	32924	
7835	0	32712	
7836	0	32578	
7837	0	32764	
7838	0	32952	
7839	0	32944	
7840	0	32968	
7841	0	32972	
7842	0	33028	
7843	0	33092	
7844	0	32997	
7845	0	32992	
7846	0	32948	
7847	0	32776	
7848	0	32681	
7849	0	32456	
7850	0	32262	
7851	0	32188	
7852	0	32468	
7853	0	32661	
7854	0	32708	
7855	0	32740	
7856	0	32788	
7857	0	32936	
7858	0	33052	
7859	0	33104	
7860	0	33092	
7861	0	33102	
7862	0	32992	
7863	0	32956	
7864	0	32852	
7865	0	32779	
7866	0	32684	
7867	0	32640	
7868	0	32612	
7869	0	32560	
7870	0	32461	
7871	0	32421	
7872	0	32454	
7873	0	32656	
7874	0	32788	
7875	0	32776	
7876	0	32910	
7877	0	33064	
7878	0	32896	
7879	0	32956	
7880	0	32948	
7881	0	32856	
7882	0	32836	
7883	0	32932	
7884	0	32932	
7885	0	32900	
7886	0	32808	
7887	0	32736	
7888	0	32740	
7889	0	32716	
7890	0	32614	
7891	0	32404	
7892	0	32316	
7893	0	32458	
7894	0	32696	
7895	0	32744	
7896	0	32848	
7897	0	32876	
7898	0	32976	
7899	0	33048	
7900	0	33032	
7901	0	32968	
7902	0	32928	
7903	0	33060	
7904	0	33036	
7905	0	32868	
7906	0	32670	
7907	0	32608	
7908	0	32596	
7909	0	32556	
7910	0	32440	
7911	0	32340	
7912	0	32524	
7913	0	32740	
7914	0	32936	
7915	0	32724	
7916	0	32680	
7917	0	32716	
7918	0	32794	
7919	0	32976	
7920	0	33052	
7921	0	33028	
7922	0	32996	
7923	0	32984	
7924	0	32993	
7925	0	32844	
7926	0	32840	
7927	0	32780	
7928	0	32676	
7929	0	32520	
7930	0	32380	
7931	0	32416	
7932	0	32445	
7933	0	32608	
7934	0	32829	
7935	0	32804	
7936	0	32868	
7937	0	32901	
7938	0	32848	
7939	0	32852	
7940	0	32784	
7941	0	32973	
7942	0	33108	
7943	0	33140	
7944	0	33044	
7945	0	32972	
7946	0	32796	
7947	0	32680	
7948	0	32704	
7949	0	32417	
7950	0	32300	
7951	0	32188	
7952	0	32432	
7953	0	32600	
7954	0	32805	
7955	0	32892	
7956	0	32916	
7957	0	32960	
7958	0	32948	
7959	0	32948	
7960	0	32952	
7961	0	33036	
7962	0	33024	
7963	0	33020	
7964	0	33048	
7965	0	32970	
7966	0	32864	
7967	0	32612	
7968	0	32581	
7969	0	32496	
7970	0	32406	
7971	0	32348	
7972	0	32392	
7973	0	32615	
7974	0	32784	
7975	0	32792	
7976	0	32868	
7977	0	32928	
7978	0	32980	
7979	0	33024	
7980	0	32998	
7981	0	32964	
7982	0	32934	
7983	0	32932	
7984	0	33046	
7985	0	32904	
7986	0	32820	
7987	0	32700	
7988	0	32604	
7989	0	32548	
7990	0	32464	
7991	0	32446	
7992	0	32382	
7993	0	32528	
7994	0	32688	
7995	0	32840	
7996	0	32932	
7997	0	32989	
7998	0	32940	
7999	0	32956	
8000	0	33004	
8001	0	33024	
8002	0	32908	
8003	0	32972	
8004	0	32964	
8005	0	32940	
8006	0	32804	
8007	0	32864	
8008	0	32916	
8009	0	32588	
8010	0	32524	
8011	0	32288	
8012	0	32264	
8013	0	32360	
8014	0	32560	
8015	0	32700	
8016	0	32896	
8017	0	32876	
8018	0	32856	
8019	0	32996	
8020	0	33060	
8021	0	32948	
8022	0	32968	
8023	0	33024	
8024	0	33040	
8025	0	33056	
8026	0	32985	
8027	0	32825	
8028	0	32672	
8029	0	32452	
8030	0	32444	
8031	0	32348	
8032	0	32292	
8033	0	32536	
8034	0	32725	
8035	0	32841	
8036	0	32924	
8037	0	32942	
8038	0	32992	
8039	0	32948	
8040	0	32968	
8041	0	32968	
8042	0	32856	
8043	0	32962	
8044	0	33020	
8045	0	32920	
8046	0	32804	
8047	0	32620	
8048	0	32596	
8049	0	32440	
8050	0	32540	
8051	0	32548	
8052	0	32500	
8053	0	32592	
8054	0	32624	
8055	0	32816	
8056	0	32932	
8057	0	32896	
8058	0	32945	
8059	0	32904	
8060	0	32944	
8061	0	32992	
8062	0	33004	
8063	0	33120	
8064	0	33052	
8065	0	32992	
8066	0	32764	
8067	0	32672	
8068	0	32628	
8069	0	32480	
8070	0	32368	
8071	0	32284	
8072	0	32468	
8073	0	32616	
8074	0	32740	
8075	0	32756	
8076	0	32984	
8077	0	32932	
8078	0	32876	
8079	0	33045	
8080	0	33300	
8081	0	33288	
8082	0	32892	
8083	0	32736	
8084	0	32620	
8085	0	32808	
8086	0	32852	
8087	0	32800	
8088	0	32652	
8089	0	32464	
8090	0	32441	
8091	0	32568	
8092	0	32416	
8093	0	32373	
8094	0	32676	
8095	0	32880	
8096	0	32996	
8097	0	32900	
8098	0	32813	
8099	0	32876	
8100	0	33020	
8101	0	33060	
8102	0	32964	
8103	0	33044	
8104	0	33168	
8105	0	32960	
8106	0	32916	
8107	0	32684	
8108	0	32604	
8109	0	32460	
8110	0	32368	
8111	0	32353	
8112	0	32436	
8113	0	32604	
8114	0	32644	
8115	0	32766	
8116	0	32894	
8117	0	33132	
8118	0	33073	
8119	0	33068	
8120	0	32736	
8121	0	32836	
8122	0	32792	
8123	0	32932	
8124	0	33056	
8125	0	33000	
8126	0	32808	
8127	0	32677	
8128	0	32608	
8129	0	32556	
8130	0	32508	
8131	0	32372	
8132	0	32476	
8133	0	32664	
8134	0	32780	
8135	0	32753	
8136	0	32804	
8137	0	32892	
8138	0	32944	
8139	0	32981	
8140	0	33017	
8141	0	32976	
8142	0	32980	
8143	0	33062	
8144	0	32936	
8145	0	32865	
8146	0	32800	
8147	0	32572	
8148	0	32544	
8149	0	32560	
8150	0	32512	
8151	0	32464	
8152	0	32400	
8153	0	32653	
8154	0	32850	
8155	0	32864	
8156	0	32780	
8157	0	32808	
8158	0	32788	
8159	0	32928	
8160	0	32860	
8161	0	32880	
8162	0	33130	
8163	0	33048	
8164	0	33024	
8165	0	32863	
8166	0	32840	
8167	0	32744	
8168	0	32656	
8169	0	32484	
8170	0	32324	
8171	0	32277	
8172	0	32362	
8173	0	32540	
8174	0	32862	
8175	0	33016	
8176	0	32932	
8177	0	33056	
8178	0	33024	
8179	0	33004	
8180	0	32900	
8181	0	32880	
8182	0	32912	
8183	0	32984	
8184	0	32976	
8185	0	32940	
8186	0	32775	
8187	0	32640	
8188	0	32564	
8189	0	32524	
8190	0	32464	
8191	0	32428	
8192	0	32452	
8193	0	32592	
8194	0	32760	
8195	0	32852	
8196	0	32956	
8197	0	33004	
8198	0	32908	
8199	0	32918	
8200	0	32992	
8201	0	33053	
8202	0	33000	
8203	0	33020	
8204	0	33100	
8205	0	32876	
8206	0	32708	
8207	0	32676	
8208	0	32700	
8209	0	32597	
8210	0	32360	
8211	0	32212	
8212	0	32328	
8213	0	32536	
8214	0	32826	
8215	0	32869	
8216	0	32812	
8217	0	32908	
8218	0	33048	
8219	0	32964	
8220	0	33032	
8221	0	32960	
8222	0	32904	
8223	0	33004	
8224	0	33096	
8225	0	32960	
8226	0	32852	
8227	0	32632	
8228	0	32529	
8229	0	32540	
8230	0	32513	
8231	0	32429	
8232	0	32324	
8233	0	32464	
8234	0	32616	
8235	0	32776	
8236	0	32929	
8237	0	33108	
8238	0	33096	
8239	0	32984	
8240	0	33104	
8241	0	32992	
8242	0	32956	
8243	0	32880	
8244	0	32972	
8245	0	33052	
8246	0	32956	
8247	0	32587	
8248	0	32400	
8249	0	32400	
8250	0	32204	
8251	0	32084	
8252	0	32373	
8253	0	32656	
8254	0	32856	
8255	0	32884	
8256	0	32824	
8257	0	32912	
8258	0	32856	
8259	0	32924	
8260	0	32980	
8261	0	33068	
8262	0	33052	
8263	0	33158	
8264	0	33108	
8265	0	32960	
8266	0	32744	
8267	0	32640	
8268	0	32644	
8269	0	32623	
8270	0	32420	
8271	0	32404	
8272	0	32408	
8273	0	32536	
8274	0	32712	
8275	0	32821	
8276	0	32804	
8277	0	32860	
8278	0	32953	
8279	0	32961	
8280	0	32908	
8281	0	32968	
8282	0	32968	
8283	0	33009	
8284	0	33057	
8285	0	32928	
8286	0	32800	
8287	0	32650	
8288	0	32621	
8289	0	32600	
8290	0	32576	
8291	0	32289	
8292	0	32396	
8293	0	32676	
8294	0	32677	
8295	0	32720	
8296	0	32696	
8297	0	32889	
8298	0	33044	
8299	0	33124	
8300	0	33137	
8301	0	33029	
8302	0	32940	
8303	0	32948	
8304	0	33012	
8305	0	32924	
8306	0	32820	
8307	0	32797	
8308	0	32703	
8309	0	32542	
8310	0	32240	
8311	0	32152	
8312	0	32400	
8313	0	32700	
8314	0	32784	
8315	0	32812	
8316	0	32710	
8317	0	32748	
8318	0	32838	
8319	0	33022	
8320	0	33118	
8321	0	33048	
8322	0	32976	
8323	0	33028	
8324	0	32984	
8325	0	32936	
8326	0	32768	
8327	0	32600	
8328	0	32640	
8329	0	32520	
8330	0	32536	
8331	0	32415	
8332	0	32488	
8333	0	32640	
8334	0	32636	
8335	0	32812	
8336	0	32868	
8337	0	32964	
8338	0	33004	
8339	0	32937	
8340	0	32834	
8341	0	33088	
8342	0	33118	
8343	0	32992	
8344	0	32968	
8345	0	32932	
8346	0	32808	
8347	0	32728	
8348	0	32644	
8349	0	32312	
8350	0	32256	
8351	0	32388	
8352	0	32412	
8353	0	32504	
8354	0	32692	
8355	0	32804	
8356	0	32864	
8357	0	32928	
8358	0	32908	
8359	0	32960	
8360	0	32984	
8361	0	33040	
8362	0	33056	
8363	0	33096	
8364	0	33040	
8365	0	32937	
8366	0	32852	
8367	0	32672	
8368	0	32606	
8369	0	32476	
8370	0	32436	
8371	0	32348	
8372	0	32372	
8373	0	32560	
8374	0	32728	
8375	0	32832	
8376	0	33016	
8377	0	33292	
8378	0	33005	
8379	0	32724	
8380	0	32852	
8381	0	33008	
8382	0	32992	
8383	0	33028	
8384	0	33084	
8385	0	32924	
8386	0	32744	
8387	0	32576	
8388	0	32564	
8389	0	32484	
8390	0	32424	
8391	0	32364	
8392	0	32464	
8393	0	32638	
8394	0	32744	
8395	0	32764	
8396	0	32846	
8397	0	32996	
8398	0	33012	
8399	0	32984	
8400	0	32940	
8401	0	32980	
8402	0	32984	
8403	0	33008	
8404	0	33124	
8405	0	33228	
8406	0	33117	
8407	0	32912	
8408	0	32400	
8409	0	32044	
8410	0	31962	
8411	0	32281	
8412	0	32396	
8413	0	32500	
8414	0	32654	
8415	0	32832	
8416	0	33012	
8417	0	32969	
8418	0	32936	
8419	0	32968	
8420	0	33024	
8421	0	33028	
8422	0	33056	
8423	0	33080	
8424	0	33076	
8425	0	33028	
8426	0	32764	
8427	0	32588	
8428	0	32632	
8429	0	32516	
8430	0	32520	
8431	0	32420	
8432	0	32424	
8433	0	32596	
8434	0	32704	
8435	0	32797	
8436	0	32912	
8437	0	32973	
8438	0	32888	
8439	0	32798	
8440	0	32740	
8441	0	32836	
8442	0	32896	
8443	0	32962	
8444	0	33004	
8445	0	33124	
8446	0	33052	
8447	0	32798	
8448	0	32724	
8449	0	32545	
8450	0	32301	
8451	0	32268	
8452	0	32432	
8453	0	32518	
8454	0	32562	
8455	0	32756	
8456	0	32956	
8457	0	32896	
8458	0	32929	
8459	0	32940	
8460	0	33088	
8461	0	33024	
8462	0	33008	
8463	0	32972	
8464	0	33036	
8465	0	33004	
8466	0	32888	
8467	0	32688	
8468	0	32564	
8469	0	32504	
8470	0	32462	
8471	0	32364	
8472	0	32404	
8473	0	32556	
8474	0	32712	
8475	0	32784	
8476	0	32864	
8477	0	32912	
8478	0	32916	
8479	0	33024	
8480	0	33086	
8481	0	33068	
8482	0	32944	
8483	0	32960	
8484	0	33048	
8485	0	32976	
8486	0	32680	
8487	0	32516	
8488	0	32640	
8489	0	32612	
8490	0	32472	
8491	0	32344	
8492	0	32436	
8493	0	32536	
8494	0	32716	
8495	0	32777	
8496	0	32884	
8497	0	32992	
8498	0	33064	
8499	0	32896	
8500	0	32864	
8501	0	32844	
8502	0	33006	
8503	0	33124	
8504	0	33024	
8505	0	32876	
8506	0	32764	
8507	0	32613	
8508	0	32632	
8509	0	32580	
8510	0	32406	
8511	0	32349	
8512	0	32528	
8513	0	32688	
8514	0	32728	
8515	0	32720	
8516	0	32852	
8517	0	32901	
8518	0	32828	
8519	0	32888	
8520	0	32916	
8521	0	33052	
8522	0	33088	
8523	0	33100	
8524	0	33088	
8525	0	32956	
8526	0	32808	
8527	0	32568	
8528	0	32508	
8529	0	32356	
8530	0	32276	
8531	0	32398	
8532	0	32576	
8533	0	32732	
8534	0	32788	
8535	0	32661	
8536	0	32744	
8537	0	32900	
8538	0	32960	
8539	0	33060	
8540	0	33169	
8541	0	33152	
8542	0	33060	
8543	0	32917	
8544	0	32846	
8545	0	32880	
8546	0	32800	
8547	0	32636	
8548	0	32644	
8549	0	32552	
8550	0	32428	
8551	0	32320	
8552	0	32381	
8553	0	32629	
8554	0	32808	
8555	0	32940	
8556	0	32940	
8557	0	32905	
8558	0	32812	
8559	0	32804	
8560	0	32844	
8561	0	32952	
8562	0	33036	
8563	0	33144	
8564	0	33092	
8565	0	33000	
8566	0	32764	
8567	0	32724	
8568	0	32532	
8569	0	32544	
8570	0	32378	
8571	0	32254	
8572	0	32376	
8573	0	32646	
8574	0	32888	
8575	0	32928	
8576	0	33032	
8577	0	32878	
8578	0	32816	
8579	0	32846	
8580	0	33020	
8581	0	32976	
8582	0	32972	
8583	0	33020	
8584	0	33014	
8585	0	32956	
8586	0	32728	
8587	0	32592	
8588	0	32548	
8589	0	32496	
8590	0	32390	
8591	0	32392	
8592	0	32422	
8593	0	32584	
8594	0	32764	
8595	0	32828	
8596	0	33040	
8597	0	33096	
8598	0	33092	
8599	0	32844	
8600	0	32740	
8601	0	32656	
8602	0	32836	
8603	0	33084	
8604	0	33052	
8605	0	32996	
8606	0	32820	
8607	0	32788	
8608	0	32686	
8609	0	32609	
8610	0	32416	
8611	0	32337	
8612	0	32428	
8613	0	32556	
