# OpenSignals Text File Format. Version 1
# {"00:07:80:4D:2E:9E": {"position": 0, "device": "biosignalsplux", "device name": "00:07:80:4D:2E:9E", "device connection": "BTH00:07:80:4D:2E:9E", "sampling rate": 1000, "resolution": [16], "firmware version": 774, "comments": "", "keywords": "", "mode": 0, "sync interval": 2, "date": "2020-7-9", "time": "18:53:17.484", "channels": [1], "sensor": ["EMG"], "label": ["CH1"], "column": ["nSeq", "DI", "CH1"], "special": [{}], "digital IO": [0, 1]}}
# EndOfHeader
0	0	32780	
1	0	32804	
2	0	32828	
3	0	32856	
4	0	32845	
5	0	32821	
6	0	32860	
7	0	32804	
8	0	32884	
9	0	32929	
10	0	32852	
11	0	32796	
12	0	32781	
13	0	32820	
14	0	32824	
15	0	32820	
16	0	32756	
17	0	32756	
18	0	32816	
19	0	32848	
20	0	32912	
21	0	32856	
22	0	32848	
23	0	32728	
24	0	32860	
25	0	32840	
26	0	32824	
27	0	32805	
28	0	32804	
29	0	32800	
30	0	32742	
31	0	32684	
32	0	32696	
33	0	32732	
34	0	32684	
35	0	32712	
36	0	32637	
37	0	32576	
38	0	32692	
39	0	32708	
40	0	32740	
41	0	32716	
42	0	32768	
43	0	32800	
44	0	32788	
45	0	32796	
46	0	32812	
47	0	32864	
48	0	32980	
49	0	32904	
50	0	32808	
51	0	32628	
52	0	32622	
53	0	32656	
54	0	32604	
55	0	32748	
56	0	32685	
57	0	32872	
58	0	32864	
59	0	32880	
60	0	32856	
61	0	32801	
62	0	32864	
63	0	32824	
64	0	32820	
65	0	32784	
66	0	32789	
67	0	32676	
68	0	32846	
69	0	32828	
70	0	32775	
71	0	32812	
72	0	32834	
73	0	32840	
74	0	32880	
75	0	32822	
76	0	32862	
77	0	32912	
78	0	32932	
79	0	32948	
80	0	32880	
81	0	32860	
82	0	32836	
83	0	32752	
84	0	32781	
85	0	32796	
86	0	32832	
87	0	32832	
88	0	32800	
89	0	32878	
90	0	32772	
91	0	32840	
92	0	32756	
93	0	32804	
94	0	32756	
95	0	32624	
96	0	32728	
97	0	32800	
98	0	32796	
99	0	32800	
100	0	32792	
101	0	32804	
102	0	32800	
103	0	32844	
104	0	32884	
105	0	32860	
106	0	32820	
107	0	32772	
108	0	32744	
109	0	32796	
110	0	32656	
111	0	32728	
112	0	32676	
113	0	32772	
114	0	32686	
115	0	32696	
116	0	32653	
117	0	32706	
118	0	32717	
119	0	32720	
120	0	32704	
121	0	32604	
122	0	32612	
123	0	32756	
124	0	32816	
125	0	32812	
126	0	32824	
127	0	32764	
128	0	32782	
129	0	32848	
130	0	32812	
131	0	32748	
132	0	32704	
133	0	32724	
134	0	32624	
135	0	32608	
136	0	32624	
137	0	32668	
138	0	32704	
139	0	32768	
140	0	32736	
141	0	32736	
142	0	32788	
143	0	32848	
144	0	32864	
145	0	32904	
146	0	32901	
147	0	32926	
148	0	33068	
149	0	33044	
150	0	33012	
151	0	32980	
152	0	32996	
153	0	32909	
154	0	32876	
155	0	32824	
156	0	32826	
157	0	32788	
158	0	32772	
159	0	32800	
160	0	32828	
161	0	32820	
162	0	32798	
163	0	32808	
164	0	32800	
165	0	32792	
166	0	32684	
167	0	32652	
168	0	32668	
169	0	32636	
170	0	32650	
171	0	32644	
172	0	32684	
173	0	32720	
174	0	32632	
175	0	32708	
176	0	32676	
177	0	32692	
178	0	32776	
179	0	32824	
180	0	32792	
181	0	32760	
182	0	32688	
183	0	32692	
184	0	32672	
185	0	32800	
186	0	32756	
187	0	32702	
188	0	32724	
189	0	32724	
190	0	32688	
191	0	32676	
192	0	32645	
193	0	32744	
194	0	32728	
195	0	32698	
196	0	32716	
197	0	32708	
198	0	32740	
199	0	32784	
200	0	32868	
201	0	32792	
202	0	32844	
203	0	32822	
204	0	32812	
205	0	32790	
206	0	32776	
207	0	32760	
208	0	32796	
209	0	32756	
210	0	32672	
211	0	32744	
212	0	32748	
213	0	32736	
214	0	32820	
215	0	32732	
216	0	32716	
217	0	32804	
218	0	32913	
219	0	32932	
220	0	32884	
221	0	32861	
222	0	32868	
223	0	32774	
224	0	32816	
225	0	32792	
226	0	32852	
227	0	32828	
228	0	32764	
229	0	32693	
230	0	32752	
231	0	32644	
232	0	32732	
233	0	32788	
234	0	32800	
235	0	32736	
236	0	32844	
237	0	32820	
238	0	32848	
239	0	32936	
240	0	32972	
241	0	32908	
242	0	32828	
243	0	32797	
244	0	32760	
245	0	32752	
246	0	32772	
247	0	32764	
248	0	32924	
249	0	32804	
250	0	32736	
251	0	32744	
252	0	32752	
253	0	32764	
254	0	32748	
255	0	32704	
256	0	32736	
257	0	32748	
258	0	32773	
259	0	32800	
260	0	32769	
261	0	32812	
262	0	32812	
263	0	32768	
264	0	32742	
265	0	32750	
266	0	32780	
267	0	32740	
268	0	32672	
269	0	32700	
270	0	32647	
271	0	32664	
272	0	32644	
273	0	32640	
274	0	32689	
275	0	32700	
276	0	32688	
277	0	32804	
278	0	32816	
279	0	32844	
280	0	32820	
281	0	32925	
282	0	32844	
283	0	32788	
284	0	32772	
285	0	32828	
286	0	32812	
287	0	32768	
288	0	32800	
289	0	32808	
290	0	32800	
291	0	32696	
292	0	32728	
293	0	32704	
294	0	32644	
295	0	32680	
296	0	32696	
297	0	32685	
298	0	32636	
299	0	32740	
300	0	32752	
301	0	32772	
302	0	32766	
303	0	32712	
304	0	32796	
305	0	32772	
306	0	32788	
307	0	32908	
308	0	32884	
309	0	32852	
310	0	32840	
311	0	32780	
312	0	32724	
313	0	32776	
314	0	32800	
315	0	32780	
316	0	32665	
317	0	32736	
318	0	32700	
319	0	32772	
320	0	32748	
321	0	32768	
322	0	32768	
323	0	32748	
324	0	32812	
325	0	32815	
326	0	32808	
327	0	32878	
328	0	32892	
329	0	32916	
330	0	32852	
331	0	32712	
332	0	32660	
333	0	32716	
334	0	32748	
335	0	32756	
336	0	32692	
337	0	32692	
338	0	32748	
339	0	32840	
340	0	32908	
341	0	32828	
342	0	32824	
343	0	32757	
344	0	32776	
345	0	32780	
346	0	32816	
347	0	32764	
348	0	32824	
349	0	32768	
350	0	32732	
351	0	32752	
352	0	32680	
353	0	32792	
354	0	32756	
355	0	32668	
356	0	32612	
357	0	32681	
358	0	32704	
359	0	32772	
360	0	32808	
361	0	32900	
362	0	32780	
363	0	32884	
364	0	32864	
365	0	32888	
366	0	32878	
367	0	32828	
368	0	32808	
369	0	32852	
370	0	32748	
371	0	32726	
372	0	32780	
373	0	32824	
374	0	32528	
375	0	32416	
376	0	32340	
377	0	32444	
378	0	32560	
379	0	32616	
380	0	32712	
381	0	32725	
382	0	32764	
383	0	32724	
384	0	32824	
385	0	32797	
386	0	32873	
387	0	32800	
388	0	32849	
389	0	32716	
390	0	32732	
391	0	32708	
392	0	32804	
393	0	32780	
394	0	32628	
395	0	32400	
396	0	32316	
397	0	32436	
398	0	32500	
399	0	32612	
400	0	32728	
401	0	32706	
402	0	32852	
403	0	32840	
404	0	32832	
405	0	32868	
406	0	32832	
407	0	32912	
408	0	32936	
409	0	32964	
410	0	32940	
411	0	33024	
412	0	32928	
413	0	32936	
414	0	32980	
415	0	32868	
416	0	32848	
417	0	32872	
418	0	32876	
419	0	32808	
420	0	32804	
421	0	32824	
422	0	32873	
423	0	32888	
424	0	32832	
425	0	32860	
426	0	32928	
427	0	32948	
428	0	32868	
429	0	32804	
430	0	32808	
431	0	32788	
432	0	32728	
433	0	32798	
434	0	32772	
435	0	32812	
436	0	32800	
437	0	32808	
438	0	32788	
439	0	32870	
440	0	32945	
441	0	32876	
442	0	32808	
443	0	32832	
444	0	32708	
445	0	32738	
446	0	32826	
447	0	32822	
448	0	32836	
449	0	32852	
450	0	32812	
451	0	32776	
452	0	32796	
453	0	32744	
454	0	32668	
455	0	32708	
456	0	32696	
457	0	32770	
458	0	32770	
459	0	32812	
460	0	32864	
461	0	32800	
462	0	32780	
463	0	32864	
464	0	32872	
465	0	32820	
466	0	32840	
467	0	32804	
468	0	32804	
469	0	32836	
470	0	32712	
471	0	32604	
472	0	32788	
473	0	32708	
474	0	32696	
475	0	32700	
476	0	32640	
477	0	32748	
478	0	32812	
479	0	32800	
480	0	32832	
481	0	32844	
482	0	32812	
483	0	32800	
484	0	32840	
485	0	32888	
486	0	32844	
487	0	32832	
488	0	32788	
489	0	32740	
490	0	32688	
491	0	32624	
492	0	32600	
493	0	32724	
494	0	32741	
495	0	32720	
496	0	32776	
497	0	32748	
498	0	32884	
499	0	32928	
500	0	32840	
501	0	32836	
502	0	32860	
503	0	32848	
504	0	32830	
505	0	32812	
506	0	32844	
507	0	32708	
508	0	32780	
509	0	32752	
510	0	32632	
511	0	32704	
512	0	32720	
513	0	32708	
514	0	32712	
515	0	32720	
516	0	32669	
517	0	32800	
518	0	32780	
519	0	32848	
520	0	32884	
521	0	32876	
522	0	32912	
523	0	32894	
524	0	32832	
525	0	32820	
526	0	32784	
527	0	32768	
528	0	32764	
529	0	32790	
530	0	32774	
531	0	32696	
532	0	32668	
533	0	32732	
534	0	32692	
535	0	32686	
536	0	32724	
537	0	32744	
538	0	32776	
539	0	32792	
540	0	32852	
541	0	32812	
542	0	32812	
543	0	32797	
544	0	32800	
545	0	32792	
546	0	32857	
547	0	32778	
548	0	32784	
549	0	32820	
550	0	32832	
551	0	32788	
552	0	32704	
553	0	32760	
554	0	32720	
555	0	32772	
556	0	32868	
557	0	32776	
558	0	32784	
559	0	32804	
560	0	32760	
561	0	32804	
562	0	32804	
563	0	32852	
564	0	32812	
565	0	32800	
566	0	32820	
567	0	32856	
568	0	32944	
569	0	32776	
570	0	32740	
571	0	32624	
572	0	32660	
573	0	32670	
574	0	32656	
575	0	32668	
576	0	32740	
577	0	32768	
578	0	32820	
579	0	32808	
580	0	32844	
581	0	32820	
582	0	32804	
583	0	32764	
584	0	32848	
585	0	32832	
586	0	32824	
587	0	32788	
588	0	32796	
589	0	32820	
590	0	32792	
591	0	32748	
592	0	32764	
593	0	32708	
594	0	32752	
595	0	32704	
596	0	32716	
597	0	32764	
598	0	32784	
599	0	32860	
600	0	32832	
601	0	32876	
602	0	32804	
603	0	32744	
604	0	32764	
605	0	32772	
606	0	32781	
607	0	32780	
608	0	32792	
609	0	32732	
610	0	32748	
611	0	32692	
612	0	32736	
613	0	32728	
614	0	32660	
615	0	32660	
616	0	32716	
617	0	32725	
618	0	32732	
619	0	32708	
620	0	32778	
621	0	32832	
622	0	32824	
623	0	32932	
624	0	33008	
625	0	33064	
626	0	33060	
627	0	33036	
628	0	32932	
629	0	32870	
630	0	32848	
631	0	32796	
632	0	32756	
633	0	32688	
634	0	32748	
635	0	32708	
636	0	32704	
637	0	32788	
638	0	32800	
639	0	32860	
640	0	32796	
641	0	32724	
642	0	32692	
643	0	32637	
644	0	32596	
645	0	32652	
646	0	32662	
647	0	32660	
648	0	32742	
649	0	32712	
650	0	32618	
651	0	32636	
652	0	32572	
653	0	32672	
654	0	32724	
655	0	32684	
656	0	32228	
657	0	31820	
658	0	31956	
659	0	32048	
660	0	32246	
661	0	32409	
662	0	32540	
663	0	32664	
664	0	32776	
665	0	32852	
666	0	32964	
667	0	32952	
668	0	33088	
669	0	33060	
670	0	33020	
671	0	32924	
672	0	32824	
673	0	32805	
674	0	32964	
675	0	32988	
676	0	33028	
677	0	33088	
678	0	33150	
679	0	33072	
680	0	33064	
681	0	33014	
682	0	32932	
683	0	32932	
684	0	32881	
685	0	32972	
686	0	32884	
687	0	32880	
688	0	32864	
689	0	32880	
690	0	32804	
691	0	32756	
692	0	32774	
693	0	32808	
694	0	32788	
695	0	32781	
696	0	32901	
697	0	32916	
698	0	32912	
699	0	32916	
700	0	32928	
701	0	32872	
702	0	32812	
703	0	32820	
704	0	32808	
705	0	32832	
706	0	32800	
707	0	32788	
708	0	32806	
709	0	32848	
710	0	32804	
711	0	32772	
712	0	32780	
713	0	32744	
714	0	32770	
715	0	32712	
716	0	32673	
717	0	32836	
718	0	32781	
719	0	32812	
720	0	32844	
721	0	32844	
722	0	32824	
723	0	32748	
724	0	32792	
725	0	32740	
726	0	32856	
727	0	32769	
728	0	32796	
729	0	32796	
730	0	32776	
731	0	32701	
732	0	32632	
733	0	32672	
734	0	32749	
735	0	32616	
736	0	32728	
737	0	32726	
738	0	32856	
739	0	32868	
740	0	32832	
741	0	32940	
742	0	32836	
743	0	32868	
744	0	32892	
745	0	32916	
746	0	32916	
747	0	32892	
748	0	32888	
749	0	32856	
750	0	32832	
751	0	32716	
752	0	32764	
753	0	32748	
754	0	32764	
755	0	32684	
756	0	32688	
757	0	32768	
758	0	32772	
759	0	32768	
760	0	32792	
761	0	32764	
762	0	32772	
763	0	32672	
764	0	32720	
765	0	32801	
766	0	32748	
767	0	32836	
768	0	32792	
769	0	32848	
770	0	32808	
771	0	32696	
772	0	32688	
773	0	32756	
774	0	32628	
775	0	32656	
776	0	32704	
777	0	32752	
778	0	32796	
779	0	32796	
780	0	32804	
781	0	32788	
782	0	32776	
783	0	32752	
784	0	32760	
785	0	32760	
786	0	32716	
787	0	32760	
788	0	32836	
789	0	32796	
790	0	32720	
791	0	32660	
792	0	32744	
793	0	32663	
794	0	32664	
795	0	32672	
796	0	32756	
797	0	32769	
798	0	32792	
799	0	32906	
800	0	32856	
801	0	32896	
802	0	32893	
803	0	32928	
804	0	32837	
805	0	32824	
806	0	32804	
807	0	32794	
808	0	32768	
809	0	32744	
810	0	32700	
811	0	32712	
812	0	32744	
813	0	32692	
814	0	32780	
815	0	32768	
816	0	32724	
817	0	32720	
818	0	32832	
819	0	32864	
820	0	32772	
821	0	32817	
822	0	32840	
823	0	32808	
824	0	32792	
825	0	32764	
826	0	32820	
827	0	32768	
828	0	32908	
829	0	32813	
830	0	32900	
831	0	32800	
832	0	32628	
833	0	32740	
834	0	32728	
835	0	32726	
836	0	32693	
837	0	32724	
838	0	32788	
839	0	32849	
840	0	32796	
841	0	32781	
842	0	32862	
843	0	32808	
844	0	32852	
845	0	32812	
846	0	32816	
847	0	32816	
848	0	32860	
849	0	32796	
850	0	32808	
851	0	32686	
852	0	32701	
853	0	32764	
854	0	32708	
855	0	32708	
856	0	32760	
857	0	32796	
858	0	32816	
859	0	32844	
860	0	32806	
861	0	32736	
862	0	32772	
863	0	32884	
864	0	32772	
865	0	32788	
866	0	32877	
867	0	32800	
868	0	32880	
869	0	32869	
870	0	32820	
871	0	32736	
872	0	32708	
873	0	32784	
874	0	32760	
875	0	32740	
876	0	32656	
877	0	32716	
878	0	32756	
879	0	32768	
880	0	32836	
881	0	32780	
882	0	32756	
883	0	32752	
884	0	32828	
885	0	32836	
886	0	32938	
887	0	32840	
888	0	32820	
889	0	32768	
890	0	32672	
891	0	32640	
892	0	32660	
893	0	32696	
894	0	32704	
895	0	32756	
896	0	32768	
897	0	32776	
898	0	32872	
899	0	32768	
900	0	32812	
901	0	32768	
902	0	32716	
903	0	32800	
904	0	32788	
905	0	32780	
906	0	32860	
907	0	32792	
908	0	32864	
909	0	32904	
910	0	32860	
911	0	32816	
912	0	32744	
913	0	32840	
914	0	32776	
915	0	32761	
916	0	32780	
917	0	32820	
918	0	32869	
919	0	32764	
920	0	32824	
921	0	32812	
922	0	32800	
923	0	32760	
924	0	32780	
925	0	32740	
926	0	32780	
927	0	32724	
928	0	32796	
929	0	32768	
930	0	32724	
931	0	32724	
932	0	32776	
933	0	32777	
934	0	32732	
935	0	32724	
936	0	32864	
937	0	32868	
938	0	32844	
939	0	32924	
940	0	32756	
941	0	32840	
942	0	32740	
943	0	32732	
944	0	32704	
945	0	32710	
946	0	32768	
947	0	32740	
948	0	32713	
949	0	32740	
950	0	32588	
951	0	32588	
952	0	32552	
953	0	32586	
954	0	32629	
955	0	32688	
956	0	32704	
957	0	32748	
958	0	32753	
959	0	32860	
960	0	32920	
961	0	32868	
962	0	32800	
963	0	32813	
964	0	32790	
965	0	32748	
966	0	32860	
967	0	32837	
968	0	32772	
969	0	32761	
970	0	32788	
971	0	32765	
972	0	32780	
973	0	32748	
974	0	32784	
975	0	32772	
976	0	32796	
977	0	32800	
978	0	32836	
979	0	32924	
980	0	32920	
981	0	32852	
982	0	32828	
983	0	32824	
984	0	32840	
985	0	32876	
986	0	32876	
987	0	32864	
988	0	32788	
989	0	32740	
990	0	32696	
991	0	32716	
992	0	32632	
993	0	32700	
994	0	32672	
995	0	32684	
996	0	32716	
997	0	32776	
998	0	32840	
999	0	32880	
1000	0	32902	
1001	0	32856	
1002	0	32844	
1003	0	32860	
1004	0	32824	
1005	0	32796	
1006	0	32828	
1007	0	32736	
1008	0	32860	
1009	0	32752	
1010	0	32708	
1011	0	32736	
1012	0	32716	
1013	0	32732	
1014	0	32800	
1015	0	32776	
1016	0	32744	
1017	0	32720	
1018	0	32758	
1019	0	32822	
1020	0	32912	
1021	0	32918	
1022	0	32836	
1023	0	32788	
1024	0	32876	
1025	0	32796	
1026	0	32798	
1027	0	32716	
1028	0	32704	
1029	0	32760	
1030	0	32693	
1031	0	32684	
1032	0	32640	
1033	0	32724	
1034	0	32712	
1035	0	32752	
1036	0	32760	
1037	0	32792	
1038	0	32800	
1039	0	32848	
1040	0	32866	
1041	0	32876	
1042	0	32852	
1043	0	32844	
1044	0	32832	
1045	0	32816	
1046	0	32832	
1047	0	32823	
1048	0	32784	
1049	0	32772	
1050	0	32756	
1051	0	32648	
1052	0	32692	
1053	0	32708	
1054	0	32736	
1055	0	32744	
1056	0	32748	
1057	0	32817	
1058	0	32824	
1059	0	32796	
1060	0	32896	
1061	0	32884	
1062	0	32884	
1063	0	32828	
1064	0	32790	
1065	0	32796	
1066	0	32764	
1067	0	32796	
1068	0	32804	
1069	0	32844	
1070	0	32840	
1071	0	32692	
1072	0	32676	
1073	0	32656	
1074	0	32660	
1075	0	32688	
1076	0	32756	
1077	0	32756	
1078	0	32804	
1079	0	32884	
1080	0	32770	
1081	0	32792	
1082	0	32832	
1083	0	32792	
1084	0	32869	
1085	0	32800	
1086	0	32856	
1087	0	32856	
1088	0	32800	
1089	0	32832	
1090	0	32781	
1091	0	32692	
1092	0	32716	
1093	0	32692	
1094	0	32776	
1095	0	32732	
1096	0	32756	
1097	0	32772	
1098	0	32776	
1099	0	32852	
1100	0	32812	
1101	0	32868	
1102	0	32820	
1103	0	32884	
1104	0	32824	
1105	0	32826	
1106	0	32868	
1107	0	32820	
1108	0	32804	
1109	0	32760	
1110	0	32736	
1111	0	32712	
1112	0	32692	
1113	0	32592	
1114	0	32684	
1115	0	32580	
1116	0	32640	
1117	0	32688	
1118	0	32796	
1119	0	32768	
1120	0	32816	
1121	0	32840	
1122	0	32884	
1123	0	32852	
1124	0	32860	
1125	0	32836	
1126	0	32824	
1127	0	32820	
1128	0	32844	
1129	0	32768	
1130	0	32736	
1131	0	32688	
1132	0	32652	
1133	0	32764	
1134	0	32704	
1135	0	32688	
1136	0	32776	
1137	0	32720	
1138	0	32776	
1139	0	32776	
1140	0	32772	
1141	0	32784	
1142	0	32824	
1143	0	32812	
1144	0	32780	
1145	0	32766	
1146	0	32760	
1147	0	32804	
1148	0	32752	
1149	0	32716	
1150	0	32728	
1151	0	32764	
1152	0	32752	
1153	0	32816	
1154	0	32749	
1155	0	32796	
1156	0	32760	
1157	0	32776	
1158	0	32768	
1159	0	32804	
1160	0	32800	
1161	0	32820	
1162	0	32752	
1163	0	32796	
1164	0	32826	
1165	0	32844	
1166	0	32736	
1167	0	32756	
1168	0	32748	
1169	0	32750	
1170	0	32712	
1171	0	32788	
1172	0	32740	
1173	0	32788	
1174	0	32776	
1175	0	32720	
1176	0	32826	
1177	0	32789	
1178	0	32820	
1179	0	32932	
1180	0	32864	
1181	0	32932	
1182	0	32880	
1183	0	32860	
1184	0	32846	
1185	0	32813	
1186	0	32798	
1187	0	32717	
1188	0	32744	
1189	0	32700	
1190	0	32716	
1191	0	32676	
1192	0	32648	
1193	0	32756	
1194	0	32724	
1195	0	32748	
1196	0	32712	
1197	0	32768	
1198	0	32796	
1199	0	32808	
1200	0	32828	
1201	0	32900	
1202	0	32844	
1203	0	32896	
1204	0	32848	
1205	0	32804	
1206	0	32840	
1207	0	32884	
1208	0	32832	
1209	0	32860	
1210	0	32792	
1211	0	32702	
1212	0	32708	
1213	0	32680	
1214	0	32732	
1215	0	32708	
1216	0	32716	
1217	0	32774	
1218	0	32776	
1219	0	32856	
1220	0	32832	
1221	0	32820	
1222	0	32742	
1223	0	32744	
1224	0	32792	
1225	0	32816	
1226	0	32768	
1227	0	32824	
1228	0	32860	
1229	0	32774	
1230	0	32800	
1231	0	32761	
1232	0	32772	
1233	0	32724	
1234	0	32844	
1235	0	32804	
1236	0	32696	
1237	0	32780	
1238	0	32845	
1239	0	32832	
1240	0	32868	
1241	0	32840	
1242	0	32794	
1243	0	32760	
1244	0	32804	
1245	0	32792	
1246	0	32796	
1247	0	32712	
1248	0	32849	
1249	0	32794	
1250	0	32740	
1251	0	32684	
1252	0	32692	
1253	0	32712	
1254	0	32720	
1255	0	32756	
1256	0	32712	
1257	0	32767	
1258	0	32812	
1259	0	32845	
1260	0	32876	
1261	0	32844	
1262	0	32760	
1263	0	32804	
1264	0	32822	
1265	0	32796	
1266	0	32820	
1267	0	32840	
1268	0	32808	
1269	0	32812	
1270	0	32724	
1271	0	32708	
1272	0	32776	
1273	0	32816	
1274	0	32688	
1275	0	32660	
1276	0	32696	
1277	0	32663	
1278	0	32716	
1279	0	32828	
1280	0	32857	
1281	0	32868	
1282	0	32817	
1283	0	32800	
1284	0	32840	
1285	0	32860	
1286	0	32812	
1287	0	32800	
1288	0	32932	
1289	0	32840	
1290	0	32760	
1291	0	32696	
1292	0	32772	
1293	0	32756	
1294	0	32720	
1295	0	32688	
1296	0	32796	
1297	0	32804	
1298	0	32820	
1299	0	32848	
1300	0	32808	
1301	0	32880	
1302	0	32752	
1303	0	32701	
1304	0	32780	
1305	0	32756	
1306	0	32789	
1307	0	32708	
1308	0	32685	
1309	0	32752	
1310	0	32696	
1311	0	32704	
1312	0	32652	
1313	0	32740	
1314	0	32800	
1315	0	32758	
1316	0	32724	
1317	0	32772	
1318	0	32857	
1319	0	32880	
1320	0	32816	
1321	0	32792	
1322	0	32836	
1323	0	32840	
1324	0	32872	
1325	0	32828	
1326	0	32840	
1327	0	32840	
1328	0	32836	
1329	0	32833	
1330	0	32828	
1331	0	32813	
1332	0	32789	
1333	0	32740	
1334	0	32748	
1335	0	32805	
1336	0	32770	
1337	0	32800	
1338	0	32838	
1339	0	32868	
1340	0	32696	
1341	0	32732	
1342	0	32792	
1343	0	32740	
1344	0	32824	
1345	0	32736	
1346	0	32748	
1347	0	32700	
1348	0	32816	
1349	0	32808	
1350	0	32773	
1351	0	32736	
1352	0	32832	
1353	0	32812	
1354	0	32720	
1355	0	32692	
1356	0	32620	
1357	0	32724	
1358	0	32820	
1359	0	32828	
1360	0	32897	
1361	0	32800	
1362	0	32817	
1363	0	32812	
1364	0	32800	
1365	0	32822	
1366	0	32746	
1367	0	32849	
1368	0	32796	
1369	0	32760	
1370	0	32708	
1371	0	32696	
1372	0	32676	
1373	0	32700	
1374	0	32704	
1375	0	32740	
1376	0	32752	
1377	0	32780	
1378	0	32840	
1379	0	32824	
1380	0	32908	
1381	0	32868	
1382	0	32776	
1383	0	32820	
1384	0	32848	
1385	0	32696	
1386	0	32672	
1387	0	32632	
1388	0	32780	
1389	0	32692	
1390	0	32640	
1391	0	32640	
1392	0	32696	
1393	0	32776	
1394	0	32740	
1395	0	32776	
1396	0	32708	
1397	0	32756	
1398	0	32828	
1399	0	32900	
1400	0	32856	
1401	0	32816	
1402	0	32800	
1403	0	32788	
1404	0	32792	
1405	0	32770	
1406	0	32816	
1407	0	32822	
1408	0	32830	
1409	0	32804	
1410	0	32758	
1411	0	32720	
1412	0	32744	
1413	0	32709	
1414	0	32700	
1415	0	32673	
1416	0	32736	
1417	0	32752	
1418	0	32857	
1419	0	32784	
1420	0	32896	
1421	0	32892	
1422	0	32804	
1423	0	32848	
1424	0	32800	
1425	0	32908	
1426	0	32828	
1427	0	32788	
1428	0	32800	
1429	0	32872	
1430	0	32800	
1431	0	32800	
1432	0	32768	
1433	0	32828	
1434	0	32824	
1435	0	32724	
1436	0	32784	
1437	0	32816	
1438	0	32852	
1439	0	32788	
1440	0	32748	
1441	0	32836	
1442	0	32768	
1443	0	32696	
1444	0	32788	
1445	0	32884	
1446	0	32876	
1447	0	32792	
1448	0	32836	
1449	0	32824	
1450	0	32804	
1451	0	32732	
1452	0	32732	
1453	0	32760	
1454	0	32720	
1455	0	32792	
1456	0	32776	
1457	0	32764	
1458	0	32832	
1459	0	32832	
1460	0	32828	
1461	0	32764	
1462	0	32780	
1463	0	32780	
1464	0	32796	
1465	0	32844	
1466	0	32808	
1467	0	32828	
1468	0	32808	
1469	0	32824	
1470	0	32732	
1471	0	32728	
1472	0	32762	
1473	0	32724	
1474	0	32712	
1475	0	32648	
1476	0	32732	
1477	0	32796	
1478	0	32780	
1479	0	32824	
1480	0	32849	
1481	0	32840	
1482	0	32868	
1483	0	32752	
1484	0	32788	
1485	0	32876	
1486	0	32808	
1487	0	32820	
1488	0	32804	
1489	0	32792	
1490	0	32748	
1491	0	32784	
1492	0	32724	
1493	0	32728	
1494	0	32728	
1495	0	32632	
1496	0	32684	
1497	0	32706	
1498	0	32804	
1499	0	32816	
1500	0	32848	
1501	0	32824	
1502	0	32820	
1503	0	32788	
1504	0	32768	
1505	0	32776	
1506	0	32812	
1507	0	32820	
1508	0	32879	
1509	0	32758	
1510	0	32780	
1511	0	32688	
1512	0	32660	
1513	0	32788	
1514	0	32676	
1515	0	32692	
1516	0	32724	
1517	0	32804	
1518	0	32820	
1519	0	32796	
1520	0	32901	
1521	0	32852	
1522	0	32830	
1523	0	32788	
1524	0	32828	
1525	0	32837	
1526	0	32796	
1527	0	32668	
1528	0	32808	
1529	0	32812	
1530	0	32740	
1531	0	32772	
1532	0	32696	
1533	0	32744	
1534	0	32800	
1535	0	32748	
1536	0	32790	
1537	0	32736	
1538	0	32764	
1539	0	32712	
1540	0	32784	
1541	0	32828	
1542	0	32816	
1543	0	32799	
1544	0	32772	
1545	0	32762	
1546	0	32800	
1547	0	32770	
1548	0	32868	
1549	0	32804	
1550	0	32716	
1551	0	32764	
1552	0	32704	
1553	0	32720	
1554	0	32724	
1555	0	32825	
1556	0	32764	
1557	0	32760	
1558	0	32834	
1559	0	32836	
1560	0	32857	
1561	0	32860	
1562	0	32764	
1563	0	32800	
1564	0	32800	
1565	0	32760	
1566	0	32792	
1567	0	32872	
1568	0	32916	
1569	0	32908	
1570	0	32856	
1571	0	32716	
1572	0	32709	
1573	0	32720	
1574	0	32684	
1575	0	32732	
1576	0	32796	
1577	0	32748	
1578	0	32780	
1579	0	32816	
1580	0	32828	
1581	0	32804	
1582	0	32828	
1583	0	32788	
1584	0	32820	
1585	0	32768	
1586	0	32824	
1587	0	32816	
1588	0	32760	
1589	0	32768	
1590	0	32744	
1591	0	32668	
1592	0	32704	
1593	0	32788	
1594	0	32696	
1595	0	32788	
1596	0	32748	
1597	0	32808	
1598	0	32824	
1599	0	32824	
1600	0	32884	
1601	0	32814	
1602	0	32768	
1603	0	32720	
1604	0	32692	
1605	0	32748	
1606	0	32849	
1607	0	32794	
1608	0	32780	
1609	0	32840	
1610	0	32812	
1611	0	32748	
1612	0	32736	
1613	0	32696	
1614	0	32716	
1615	0	32684	
1616	0	32644	
1617	0	32773	
1618	0	32788	
1619	0	32832	
1620	0	32836	
1621	0	32869	
1622	0	32837	
1623	0	32816	
1624	0	32828	
1625	0	32784	
1626	0	32792	
1627	0	32796	
1628	0	32808	
1629	0	32864	
1630	0	32772	
1631	0	32728	
1632	0	32767	
1633	0	32764	
1634	0	32620	
1635	0	32732	
1636	0	32752	
1637	0	32728	
1638	0	32812	
1639	0	32796	
1640	0	32884	
1641	0	32828	
1642	0	32816	
1643	0	32844	
1644	0	32828	
1645	0	32812	
1646	0	32820	
1647	0	32772	
1648	0	32848	
1649	0	32812	
1650	0	32828	
1651	0	32726	
1652	0	32754	
1653	0	32733	
1654	0	32768	
1655	0	32752	
1656	0	32768	
1657	0	32780	
1658	0	32784	
1659	0	32796	
1660	0	32860	
1661	0	32780	
1662	0	32836	
1663	0	32836	
1664	0	32752	
1665	0	32800	
1666	0	32782	
1667	0	32808	
1668	0	32860	
1669	0	32808	
1670	0	32780	
1671	0	32760	
1672	0	32720	
1673	0	32726	
1674	0	32746	
1675	0	32708	
1676	0	32685	
1677	0	32778	
1678	0	32764	
1679	0	32817	
1680	0	32868	
1681	0	32868	
1682	0	32760	
1683	0	32860	
1684	0	32828	
1685	0	32864	
1686	0	32744	
1687	0	32772	
1688	0	32769	
1689	0	32785	
1690	0	32792	
1691	0	32700	
1692	0	32757	
1693	0	32736	
1694	0	32732	
1695	0	32640	
1696	0	32732	
1697	0	32764	
1698	0	32816	
1699	0	32844	
1700	0	32844	
1701	0	32768	
1702	0	32745	
1703	0	32772	
1704	0	32800	
1705	0	32800	
1706	0	32828	
1707	0	32788	
1708	0	32792	
1709	0	32756	
1710	0	32738	
1711	0	32772	
1712	0	32680	
1713	0	32772	
1714	0	32748	
1715	0	32732	
1716	0	32776	
1717	0	32764	
1718	0	32716	
1719	0	32769	
1720	0	32788	
1721	0	32896	
1722	0	32860	
1723	0	32868	
1724	0	32824	
1725	0	32808	
1726	0	32848	
1727	0	32836	
1728	0	32792	
1729	0	32828	
1730	0	32772	
1731	0	32756	
1732	0	32758	
1733	0	32740	
1734	0	32724	
1735	0	32684	
1736	0	32684	
1737	0	32772	
1738	0	32728	
1739	0	32804	
1740	0	32788	
1741	0	32800	
1742	0	32780	
1743	0	32848	
1744	0	32748	
1745	0	32816	
1746	0	32804	
1747	0	32804	
1748	0	32824	
1749	0	32832	
1750	0	32718	
1751	0	32745	
1752	0	32768	
1753	0	32780	
1754	0	32780	
1755	0	32784	
1756	0	32752	
1757	0	32768	
1758	0	32832	
1759	0	32904	
1760	0	32900	
1761	0	32864	
1762	0	32832	
1763	0	32764	
1764	0	32765	
1765	0	32774	
1766	0	32757	
1767	0	32780	
1768	0	32788	
1769	0	32752	
1770	0	32760	
1771	0	32704	
1772	0	32664	
1773	0	32688	
1774	0	32724	
1775	0	32676	
1776	0	32688	
1777	0	32813	
1778	0	32814	
1779	0	32844	
1780	0	32860	
1781	0	32808	
1782	0	32784	
1783	0	32816	
1784	0	32893	
1785	0	32856	
1786	0	32836	
1787	0	32816	
1788	0	32832	
1789	0	32837	
1790	0	32778	
1791	0	32732	
1792	0	32668	
1793	0	32649	
1794	0	32672	
1795	0	32686	
1796	0	32692	
1797	0	32764	
1798	0	32804	
1799	0	32844	
1800	0	32796	
1801	0	32870	
1802	0	32836	
1803	0	32788	
1804	0	32784	
1805	0	32792	
1806	0	32748	
1807	0	32736	
1808	0	32856	
1809	0	32808	
1810	0	32800	
1811	0	32784	
1812	0	32732	
1813	0	32716	
1814	0	32740	
1815	0	32756	
1816	0	32672	
1817	0	32756	
1818	0	32780	
1819	0	32832	
1820	0	32832	
1821	0	32820	
1822	0	32848	
1823	0	32796	
1824	0	32780	
1825	0	32732	
1826	0	32829	
1827	0	32824	
1828	0	32820	
1829	0	32724	
1830	0	32696	
1831	0	32768	
1832	0	32764	
1833	0	32756	
1834	0	32716	
1835	0	32660	
1836	0	32672	
1837	0	32716	
1838	0	32804	
1839	0	32758	
1840	0	32836	
1841	0	32800	
1842	0	32772	
1843	0	32724	
1844	0	32769	
1845	0	32768	
1846	0	32796	
1847	0	32812	
1848	0	32776	
1849	0	32800	
1850	0	32756	
1851	0	32796	
1852	0	32716	
1853	0	32716	
1854	0	32740	
1855	0	32652	
1856	0	32660	
1857	0	32720	
1858	0	32800	
1859	0	32924	
1860	0	32776	
1861	0	32836	
1862	0	32788	
1863	0	32780	
1864	0	32760	
1865	0	32822	
1866	0	32820	
1867	0	32900	
1868	0	32880	
1869	0	32884	
1870	0	32800	
1871	0	32708	
1872	0	32720	
1873	0	32756	
1874	0	32744	
1875	0	32736	
1876	0	32708	
1877	0	32828	
1878	0	32840	
1879	0	32892	
1880	0	32796	
1881	0	32808	
1882	0	32860	
1883	0	32852	
1884	0	32804	
1885	0	32785	
1886	0	32880	
1887	0	32804	
1888	0	32812	
1889	0	32764	
1890	0	32744	
1891	0	32724	
1892	0	32708	
1893	0	32764	
1894	0	32712	
1895	0	32704	
1896	0	32640	
1897	0	32708	
1898	0	32792	
1899	0	32820	
1900	0	32844	
1901	0	32876	
1902	0	32752	
1903	0	32764	
1904	0	32760	
1905	0	32764	
1906	0	32792	
1907	0	32816	
1908	0	32808	
1909	0	32788	
1910	0	32824	
1911	0	32800	
1912	0	32680	
1913	0	32728	
1914	0	32764	
1915	0	32736	
1916	0	32716	
1917	0	32740	
1918	0	32744	
1919	0	32816	
1920	0	32824	
1921	0	32888	
1922	0	32900	
1923	0	32846	
1924	0	32756	
1925	0	32884	
1926	0	32780	
1927	0	32724	
1928	0	32732	
1929	0	32768	
1930	0	32740	
1931	0	32706	
1932	0	32708	
1933	0	32708	
1934	0	32744	
1935	0	32740	
1936	0	32684	
1937	0	32732	
1938	0	32812	
1939	0	32840	
1940	0	32812	
1941	0	32924	
1942	0	32846	
1943	0	32852	
1944	0	32840	
1945	0	32836	
1946	0	32808	
1947	0	32820	
1948	0	32928	
1949	0	32832	
1950	0	32828	
1951	0	32748	
1952	0	32688	
1953	0	32696	
1954	0	32748	
1955	0	32752	
1956	0	32741	
1957	0	32812	
1958	0	32732	
1959	0	32832	
1960	0	32880	
1961	0	32944	
1962	0	32884	
1963	0	32852	
1964	0	32744	
1965	0	32756	
1966	0	32697	
1967	0	32772	
1968	0	32824	
1969	0	32806	
1970	0	32705	
1971	0	32810	
1972	0	32756	
1973	0	32756	
1974	0	32768	
1975	0	32636	
1976	0	32696	
1977	0	32752	
1978	0	32820	
1979	0	32748	
1980	0	32869	
1981	0	32824	
1982	0	32888	
1983	0	32856	
1984	0	32788	
1985	0	32804	
1986	0	32792	
1987	0	32708	
1988	0	32753	
1989	0	32885	
1990	0	32820	
1991	0	32784	
1992	0	32748	
1993	0	32756	
1994	0	32793	
1995	0	32700	
1996	0	32764	
1997	0	32737	
1998	0	32748	
1999	0	32749	
2000	0	32716	
2001	0	32868	
2002	0	32812	
2003	0	32796	
2004	0	32720	
2005	0	32788	
2006	0	32804	
2007	0	32808	
2008	0	32772	
2009	0	32808	
2010	0	32772	
2011	0	32652	
2012	0	32676	
2013	0	32724	
2014	0	32716	
2015	0	32828	
2016	0	32792	
2017	0	32760	
2018	0	32828	
2019	0	32828	
2020	0	32820	
2021	0	32884	
2022	0	32840	
2023	0	32776	
2024	0	32774	
2025	0	32776	
2026	0	32733	
2027	0	32740	
2028	0	32816	
2029	0	32720	
2030	0	32820	
2031	0	32704	
2032	0	32696	
2033	0	32704	
2034	0	32664	
2035	0	32700	
2036	0	32804	
2037	0	32756	
2038	0	32784	
2039	0	32852	
2040	0	32880	
2041	0	32792	
2042	0	32876	
2043	0	32776	
2044	0	32748	
2045	0	32752	
2046	0	32840	
2047	0	32836	
2048	0	32844	
2049	0	32808	
2050	0	32760	
2051	0	32814	
2052	0	32741	
2053	0	32736	
2054	0	32808	
2055	0	32752	
2056	0	32760	
2057	0	32760	
2058	0	32736	
2059	0	32852	
2060	0	32852	
2061	0	32832	
2062	0	32772	
2063	0	32736	
2064	0	32756	
2065	0	32836	
2066	0	32788	
2067	0	32808	
2068	0	32790	
2069	0	32852	
2070	0	32804	
2071	0	32736	
2072	0	32736	
2073	0	32724	
2074	0	32774	
2075	0	32668	
2076	0	32792	
2077	0	32784	
2078	0	32772	
2079	0	32824	
2080	0	32820	
2081	0	32824	
2082	0	32844	
2083	0	32788	
2084	0	32740	
2085	0	32868	
2086	0	32825	
2087	0	32804	
2088	0	32868	
2089	0	32856	
2090	0	32841	
2091	0	32760	
2092	0	32720	
2093	0	32664	
2094	0	32720	
2095	0	32700	
2096	0	32789	
2097	0	32804	
2098	0	32777	
2099	0	32800	
2100	0	32844	
2101	0	32872	
2102	0	32776	
2103	0	32748	
2104	0	32788	
2105	0	32782	
2106	0	32806	
2107	0	32812	
2108	0	32900	
2109	0	32860	
2110	0	32804	
2111	0	32704	
2112	0	32752	
2113	0	32698	
2114	0	32725	
2115	0	32692	
2116	0	32748	
2117	0	32760	
2118	0	32736	
2119	0	32822	
2120	0	32856	
2121	0	32824	
2122	0	32808	
2123	0	32840	
2124	0	32804	
2125	0	32844	
2126	0	32836	
2127	0	32782	
2128	0	32772	
2129	0	32832	
2130	0	32768	
2131	0	32744	
2132	0	32736	
2133	0	32708	
2134	0	32712	
2135	0	32752	
2136	0	32695	
2137	0	32764	
2138	0	32794	
2139	0	32764	
2140	0	32852	
2141	0	32873	
2142	0	32805	
2143	0	32756	
2144	0	32784	
2145	0	32720	
2146	0	32753	
2147	0	32772	
2148	0	32884	
2149	0	32852	
2150	0	32808	
2151	0	32752	
2152	0	32680	
2153	0	32716	
2154	0	32724	
2155	0	32676	
2156	0	32718	
2157	0	32720	
2158	0	32744	
2159	0	32884	
2160	0	32840	
2161	0	32862	
2162	0	32872	
2163	0	32830	
2164	0	32840	
2165	0	32728	
2166	0	32748	
2167	0	32796	
2168	0	32784	
2169	0	32848	
2170	0	32740	
2171	0	32716	
2172	0	32761	
2173	0	32696	
2174	0	32784	
2175	0	32752	
2176	0	32744	
2177	0	32726	
2178	0	32752	
2179	0	32809	
2180	0	32833	
2181	0	32880	
2182	0	32806	
2183	0	32812	
2184	0	32792	
2185	0	32724	
2186	0	32704	
2187	0	32774	
2188	0	32804	
2189	0	32852	
2190	0	32848	
2191	0	32756	
2192	0	32700	
2193	0	32756	
2194	0	32832	
2195	0	32768	
2196	0	32692	
2197	0	32660	
2198	0	32764	
2199	0	32864	
2200	0	32808	
2201	0	32812	
2202	0	32760	
2203	0	32772	
2204	0	32760	
2205	0	32784	
2206	0	32836	
2207	0	32828	
2208	0	32772	
2209	0	32736	
2210	0	32789	
2211	0	32736	
2212	0	32702	
2213	0	32784	
2214	0	32748	
2215	0	32724	
2216	0	32684	
2217	0	32788	
2218	0	32748	
2219	0	32896	
2220	0	32808	
2221	0	32788	
2222	0	32808	
2223	0	32724	
2224	0	32736	
2225	0	32768	
2226	0	32808	
2227	0	32805	
2228	0	32848	
2229	0	32872	
2230	0	32768	
2231	0	32700	
2232	0	32748	
2233	0	32704	
2234	0	32740	
2235	0	32730	
2236	0	32696	
2237	0	32712	
2238	0	32804	
2239	0	32788	
2240	0	32844	
2241	0	32836	
2242	0	32800	
2243	0	32805	
2244	0	32820	
2245	0	32808	
2246	0	32796	
2247	0	32804	
2248	0	32864	
2249	0	32836	
2250	0	32826	
2251	0	32708	
2252	0	32649	
2253	0	32704	
2254	0	32684	
2255	0	32724	
2256	0	32804	
2257	0	32785	
2258	0	32748	
2259	0	32828	
2260	0	32852	
2261	0	32892	
2262	0	32864	
2263	0	32832	
2264	0	32824	
2265	0	32836	
2266	0	32808	
2267	0	32740	
2268	0	32718	
2269	0	32800	
2270	0	32757	
2271	0	32712	
2272	0	32696	
2273	0	32696	
2274	0	32768	
2275	0	32736	
2276	0	32620	
2277	0	32800	
2278	0	32756	
2279	0	32788	
2280	0	32820	
2281	0	32888	
2282	0	32884	
2283	0	32816	
2284	0	32740	
2285	0	32804	
2286	0	32864	
2287	0	32884	
2288	0	32804	
2289	0	32832	
2290	0	32804	
2291	0	32720	
2292	0	32628	
2293	0	32696	
2294	0	32688	
2295	0	32772	
2296	0	32740	
2297	0	32692	
2298	0	32781	
2299	0	32828	
2300	0	32824	
2301	0	32844	
2302	0	32798	
2303	0	32748	
2304	0	32732	
2305	0	32712	
2306	0	32676	
2307	0	32756	
2308	0	32825	
2309	0	32768	
2310	0	32857	
2311	0	32754	
2312	0	32728	
2313	0	32681	
2314	0	32816	
2315	0	32664	
2316	0	32712	
2317	0	32688	
2318	0	32798	
2319	0	32860	
2320	0	32904	
2321	0	32840	
2322	0	32848	
2323	0	32800	
2324	0	32804	
2325	0	32856	
2326	0	32804	
2327	0	32800	
2328	0	32832	
2329	0	32836	
2330	0	32736	
2331	0	32668	
2332	0	32722	
2333	0	32652	
2334	0	32736	
2335	0	32760	
2336	0	32692	
2337	0	32696	
2338	0	32828	
2339	0	32916	
2340	0	32876	
2341	0	32768	
2342	0	32784	
2343	0	32832	
2344	0	32869	
2345	0	32760	
2346	0	32884	
2347	0	32788	
2348	0	32816	
2349	0	32797	
2350	0	32800	
2351	0	32720	
2352	0	32716	
2353	0	32753	
2354	0	32736	
2355	0	32758	
2356	0	32766	
2357	0	32736	
2358	0	32756	
2359	0	32880	
2360	0	32772	
2361	0	32868	
2362	0	32765	
2363	0	32836	
2364	0	32776	
2365	0	32828	
2366	0	32772	
2367	0	32808	
2368	0	32765	
2369	0	32836	
2370	0	32816	
2371	0	32652	
2372	0	32704	
2373	0	32644	
2374	0	32780	
2375	0	32740	
2376	0	32748	
2377	0	32728	
2378	0	32804	
2379	0	32864	
2380	0	32840	
2381	0	32764	
2382	0	32857	
2383	0	32752	
2384	0	32836	
2385	0	32804	
2386	0	32856	
2387	0	32856	
2388	0	32744	
2389	0	32796	
2390	0	32852	
2391	0	32680	
2392	0	32668	
2393	0	32663	
2394	0	32736	
2395	0	32700	
2396	0	32680	
2397	0	32752	
2398	0	32804	
2399	0	32864	
2400	0	32828	
2401	0	32836	
2402	0	32864	
2403	0	32848	
2404	0	32844	
2405	0	32812	
2406	0	32832	
2407	0	32736	
2408	0	32884	
2409	0	32888	
2410	0	32813	
2411	0	32692	
2412	0	32692	
2413	0	32668	
2414	0	32696	
2415	0	32684	
2416	0	32748	
2417	0	32732	
2418	0	32748	
2419	0	32865	
2420	0	32812	
2421	0	32796	
2422	0	32860	
2423	0	32808	
2424	0	32800	
2425	0	32732	
2426	0	32792	
2427	0	32804	
2428	0	32840	
2429	0	32884	
2430	0	32768	
2431	0	32736	
2432	0	32728	
2433	0	32660	
2434	0	32700	
2435	0	32749	
2436	0	32736	
2437	0	32748	
2438	0	32828	
2439	0	32780	
2440	0	32836	
2441	0	32860	
2442	0	32864	
2443	0	32853	
2444	0	32792	
2445	0	32804	
2446	0	32852	
2447	0	32824	
2448	0	32693	
2449	0	32760	
2450	0	32735	
2451	0	32672	
2452	0	32708	
2453	0	32721	
2454	0	32712	
2455	0	32764	
2456	0	32716	
2457	0	32796	
2458	0	32796	
2459	0	32868	
2460	0	32816	
2461	0	32894	
2462	0	32864	
2463	0	32838	
2464	0	32796	
2465	0	32884	
2466	0	32884	
2467	0	32772	
2468	0	32716	
2469	0	32832	
2470	0	32736	
2471	0	32692	
2472	0	32648	
2473	0	32708	
2474	0	32729	
2475	0	32712	
2476	0	32656	
2477	0	32740	
2478	0	32780	
2479	0	32836	
2480	0	32880	
2481	0	32864	
2482	0	32792	
2483	0	32756	
2484	0	32740	
2485	0	32840	
2486	0	32788	
2487	0	32800	
2488	0	32860	
2489	0	32828	
2490	0	32793	
2491	0	32700	
2492	0	32720	
2493	0	32760	
2494	0	32756	
2495	0	32761	
2496	0	32750	
2497	0	32794	
2498	0	32792	
2499	0	32852	
2500	0	32892	
2501	0	32804	
2502	0	32804	
2503	0	32768	
2504	0	32704	
2505	0	32756	
2506	0	32812	
2507	0	32808	
2508	0	32824	
2509	0	32812	
2510	0	32828	
2511	0	32729	
2512	0	32716	
2513	0	32656	
2514	0	32708	
2515	0	32678	
2516	0	32752	
2517	0	32780	
2518	0	32837	
2519	0	32860	
2520	0	32837	
2521	0	32840	
2522	0	32814	
2523	0	32800	
2524	0	32804	
2525	0	32848	
2526	0	32752	
2527	0	32756	
2528	0	32772	
2529	0	32804	
2530	0	32772	
2531	0	32692	
2532	0	32709	
2533	0	32766	
2534	0	32692	
2535	0	32684	
2536	0	32708	
2537	0	32744	
2538	0	32788	
2539	0	32848	
2540	0	32892	
2541	0	32864	
2542	0	32856	
2543	0	32872	
2544	0	32856	
2545	0	32824	
2546	0	32900	
2547	0	32788	
2548	0	32765	
2549	0	32861	
2550	0	32778	
2551	0	32768	
2552	0	32668	
2553	0	32724	
2554	0	32708	
2555	0	32728	
2556	0	32772	
2557	0	32740	
2558	0	32804	
2559	0	32792	
2560	0	32756	
2561	0	32860	
2562	0	32828	
2563	0	32816	
2564	0	32800	
2565	0	32841	
2566	0	32788	
2567	0	32800	
2568	0	32855	
2569	0	32820	
2570	0	32752	
2571	0	32712	
2572	0	32708	
2573	0	32744	
2574	0	32704	
2575	0	32672	
2576	0	32724	
2577	0	32744	
2578	0	32860	
2579	0	32842	
2580	0	32832	
2581	0	32864	
2582	0	32832	
2583	0	32800	
2584	0	32780	
2585	0	32864	
2586	0	32804	
2587	0	32732	
2588	0	32784	
2589	0	32748	
2590	0	32796	
2591	0	32726	
2592	0	32719	
2593	0	32788	
2594	0	32712	
2595	0	32688	
2596	0	32688	
2597	0	32788	
2598	0	32800	
2599	0	32774	
2600	0	32844	
2601	0	32730	
2602	0	32824	
2603	0	32816	
2604	0	32766	
2605	0	32828	
2606	0	32832	
2607	0	32800	
2608	0	32772	
2609	0	32840	
2610	0	32756	
2611	0	32788	
2612	0	32717	
2613	0	32786	
2614	0	32788	
2615	0	32776	
2616	0	32732	
2617	0	32712	
2618	0	32756	
2619	0	32752	
2620	0	32832	
2621	0	32732	
2622	0	32768	
2623	0	32832	
2624	0	32792	
2625	0	32884	
2626	0	32916	
2627	0	32856	
2628	0	32800	
2629	0	32740	
2630	0	32780	
2631	0	32672	
2632	0	32708	
2633	0	32756	
2634	0	32784	
2635	0	32724	
2636	0	32740	
2637	0	32784	
2638	0	32765	
2639	0	32848	
2640	0	32837	
2641	0	32852	
2642	0	32792	
2643	0	32801	
2644	0	32784	
2645	0	32804	
2646	0	32744	
2647	0	32796	
2648	0	32836	
2649	0	32868	
2650	0	32808	
2651	0	32776	
2652	0	32720	
2653	0	32746	
2654	0	32764	
2655	0	32732	
2656	0	32736	
2657	0	32825	
2658	0	32820	
2659	0	32824	
2660	0	32772	
2661	0	32812	
2662	0	32760	
2663	0	32776	
2664	0	32748	
2665	0	32752	
2666	0	32836	
2667	0	32698	
2668	0	32724	
2669	0	32752	
2670	0	32790	
2671	0	32748	
2672	0	32740	
2673	0	32644	
2674	0	32760	
2675	0	32680	
2676	0	32700	
2677	0	32748	
2678	0	32776	
2679	0	32832	
2680	0	32832	
2681	0	32856	
2682	0	32884	
2683	0	32916	
2684	0	32768	
2685	0	32784	
2686	0	32864	
2687	0	32828	
2688	0	32800	
2689	0	32808	
2690	0	32800	
2691	0	32720	
2692	0	32686	
2693	0	32740	
2694	0	32732	
2695	0	32698	
2696	0	32800	
2697	0	32824	
2698	0	32879	
2699	0	32852	
2700	0	32840	
2701	0	32828	
2702	0	32936	
2703	0	32862	
2704	0	32877	
2705	0	32792	
2706	0	32796	
2707	0	32740	
2708	0	32812	
2709	0	32726	
2710	0	32808	
2711	0	32684	
2712	0	32712	
2713	0	32760	
2714	0	32672	
2715	0	32756	
2716	0	32720	
2717	0	32668	
2718	0	32654	
2719	0	32812	
2720	0	32804	
2721	0	32908	
2722	0	32856	
2723	0	32836	
2724	0	32864	
2725	0	32844	
2726	0	32852	
2727	0	32742	
2728	0	32772	
2729	0	32764	
2730	0	32784	
2731	0	32740	
2732	0	32684	
2733	0	32768	
2734	0	32744	
2735	0	32696	
2736	0	32720	
2737	0	32784	
2738	0	32804	
2739	0	32908	
2740	0	32869	
2741	0	32848	
2742	0	32797	
2743	0	32781	
2744	0	32768	
2745	0	32846	
2746	0	32868	
2747	0	32804	
2748	0	32824	
2749	0	32788	
2750	0	32772	
2751	0	32696	
2752	0	32785	
2753	0	32752	
2754	0	32764	
2755	0	32748	
2756	0	32660	
2757	0	32770	
2758	0	32796	
2759	0	32868	
2760	0	32833	
2761	0	32840	
2762	0	32836	
2763	0	32802	
2764	0	32756	
2765	0	32720	
2766	0	32828	
2767	0	32760	
2768	0	32808	
2769	0	32748	
2770	0	32844	
2771	0	32804	
2772	0	32728	
2773	0	32788	
2774	0	32785	
2775	0	32696	
2776	0	32668	
2777	0	32788	
2778	0	32836	
2779	0	32808	
2780	0	32884	
2781	0	32924	
2782	0	32804	
2783	0	32760	
2784	0	32824	
2785	0	32792	
2786	0	32848	
2787	0	32692	
2788	0	32792	
2789	0	32784	
2790	0	32808	
2791	0	32732	
2792	0	32760	
2793	0	32676	
2794	0	32740	
2795	0	32740	
2796	0	32704	
2797	0	32806	
2798	0	32844	
2799	0	32852	
2800	0	32852	
2801	0	32872	
2802	0	32892	
2803	0	32821	
2804	0	32844	
2805	0	32828	
2806	0	32796	
2807	0	32812	
2808	0	32784	
2809	0	32836	
2810	0	32740	
2811	0	32648	
2812	0	32640	
2813	0	32708	
2814	0	32744	
2815	0	32756	
2816	0	32772	
2817	0	32764	
2818	0	32820	
2819	0	32852	
2820	0	32828	
2821	0	32821	
2822	0	32848	
2823	0	32820	
2824	0	32776	
2825	0	32764	
2826	0	32832	
2827	0	32788	
2828	0	32756	
2829	0	32836	
2830	0	32776	
2831	0	32756	
2832	0	32812	
2833	0	32801	
2834	0	32848	
2835	0	32724	
2836	0	32685	
2837	0	32762	
2838	0	32796	
2839	0	32902	
2840	0	32804	
2841	0	32840	
2842	0	32832	
2843	0	32804	
2844	0	32848	
2845	0	32796	
2846	0	32752	
2847	0	32816	
2848	0	32834	
2849	0	32816	
2850	0	32812	
2851	0	32744	
2852	0	32704	
2853	0	32708	
2854	0	32684	
2855	0	32736	
2856	0	32676	
2857	0	32740	
2858	0	32808	
2859	0	32832	
2860	0	32748	
2861	0	32792	
2862	0	32788	
2863	0	32780	
2864	0	32774	
2865	0	32880	
2866	0	32872	
2867	0	32868	
2868	0	32824	
2869	0	32868	
2870	0	32840	
2871	0	32778	
2872	0	32684	
2873	0	32672	
2874	0	32740	
2875	0	32660	
2876	0	32688	
2877	0	32710	
2878	0	32816	
2879	0	32765	
2880	0	32848	
2881	0	32812	
2882	0	32726	
2883	0	32728	
2884	0	32792	
2885	0	32744	
2886	0	32828	
2887	0	32828	
2888	0	32900	
2889	0	32868	
2890	0	32824	
2891	0	32744	
2892	0	32720	
2893	0	32754	
2894	0	32820	
2895	0	32696	
2896	0	32706	
2897	0	32768	
2898	0	32796	
2899	0	32800	
2900	0	32836	
2901	0	32824	
2902	0	32774	
2903	0	32826	
2904	0	32768	
2905	0	32844	
2906	0	32804	
2907	0	32840	
2908	0	32877	
2909	0	32832	
2910	0	32756	
2911	0	32724	
2912	0	32782	
2913	0	32736	
2914	0	32756	
2915	0	32768	
2916	0	32772	
2917	0	32776	
2918	0	32788	
2919	0	32880	
2920	0	32852	
2921	0	32836	
2922	0	32720	
2923	0	32732	
2924	0	32816	
2925	0	32828	
2926	0	32856	
2927	0	32836	
2928	0	32800	
2929	0	32750	
2930	0	32801	
2931	0	32784	
2932	0	32736	
2933	0	32712	
2934	0	32785	
2935	0	32764	
2936	0	32720	
2937	0	32728	
2938	0	32775	
2939	0	32860	
2940	0	32904	
2941	0	32826	
2942	0	32836	
2943	0	32840	
2944	0	32721	
2945	0	32756	
2946	0	32756	
2947	0	32788	
2948	0	32800	
2949	0	32748	
2950	0	32752	
2951	0	32680	
2952	0	32656	
2953	0	32668	
2954	0	32624	
2955	0	32556	
2956	0	32560	
2957	0	32646	
2958	0	32768	
2959	0	32764	
2960	0	32869	
2961	0	32884	
2962	0	32784	
2963	0	32852	
2964	0	32834	
2965	0	32864	
2966	0	32936	
2967	0	32928	
2968	0	32836	
2969	0	32900	
2970	0	32792	
2971	0	32732	
2972	0	32848	
2973	0	32852	
2974	0	32780	
2975	0	32702	
2976	0	32728	
2977	0	32830	
2978	0	32832	
2979	0	32892	
2980	0	32892	
2981	0	32856	
2982	0	32812	
2983	0	32816	
2984	0	32856	
2985	0	32824	
2986	0	32848	
2987	0	32814	
2988	0	32820	
2989	0	32840	
2990	0	32784	
2991	0	32813	
2992	0	32833	
2993	0	32752	
2994	0	32704	
2995	0	32700	
2996	0	32676	
2997	0	32724	
2998	0	32740	
2999	0	32832	
3000	0	32768	
3001	0	32718	
3002	0	32824	
3003	0	32809	
3004	0	32796	
3005	0	32832	
3006	0	32836	
3007	0	32796	
3008	0	32784	
3009	0	32788	
3010	0	32716	
3011	0	32812	
3012	0	32744	
3013	0	32700	
3014	0	32776	
3015	0	32744	
3016	0	32756	
3017	0	32720	
3018	0	32784	
3019	0	32808	
3020	0	32768	
3021	0	32864	
3022	0	32886	
3023	0	32840	
3024	0	32820	
3025	0	32804	
3026	0	32900	
3027	0	32836	
3028	0	32886	
3029	0	32825	
3030	0	32784	
3031	0	32742	
3032	0	32780	
3033	0	32740	
3034	0	32676	
3035	0	32804	
3036	0	32732	
3037	0	32776	
3038	0	32796	
3039	0	32816	
3040	0	32736	
3041	0	32814	
3042	0	32708	
3043	0	32718	
3044	0	32768	
3045	0	32760	
3046	0	32724	
3047	0	32832	
3048	0	32836	
3049	0	32900	
3050	0	32750	
3051	0	32812	
3052	0	32696	
3053	0	32720	
3054	0	32705	
3055	0	32684	
3056	0	32784	
3057	0	32748	
3058	0	32836	
3059	0	32836	
3060	0	32780	
3061	0	32888	
3062	0	32896	
3063	0	32816	
3064	0	32780	
3065	0	32856	
3066	0	32784	
3067	0	32800	
3068	0	32776	
3069	0	32808	
3070	0	32760	
3071	0	32696	
3072	0	32724	
3073	0	32716	
3074	0	32720	
3075	0	32704	
3076	0	32740	
3077	0	32740	
3078	0	32804	
3079	0	32772	
3080	0	32780	
3081	0	32886	
3082	0	32860	
3083	0	32784	
3084	0	32816	
3085	0	32764	
3086	0	32736	
3087	0	32832	
3088	0	32804	
3089	0	32852	
3090	0	32796	
3091	0	32752	
3092	0	32684	
3093	0	32688	
3094	0	32800	
3095	0	32772	
3096	0	32768	
3097	0	32693	
3098	0	32796	
3099	0	32816	
3100	0	32881	
3101	0	32877	
3102	0	32824	
3103	0	32748	
3104	0	32844	
3105	0	32772	
3106	0	32761	
3107	0	32775	
3108	0	32821	
3109	0	32740	
3110	0	32752	
3111	0	32684	
3112	0	32704	
3113	0	32754	
3114	0	32696	
3115	0	32652	
3116	0	32644	
3117	0	32756	
3118	0	32736	
3119	0	32706	
3120	0	32772	
3121	0	32796	
3122	0	32840	
3123	0	32864	
3124	0	32852	
3125	0	32780	
3126	0	32840	
3127	0	32880	
3128	0	32852	
3129	0	32864	
3130	0	32824	
3131	0	32760	
3132	0	32809	
3133	0	32774	
3134	0	32716	
3135	0	32732	
3136	0	32776	
3137	0	32780	
3138	0	32820	
3139	0	32888	
3140	0	32880	
3141	0	32836	
3142	0	32798	
3143	0	32812	
3144	0	32748	
3145	0	32869	
3146	0	32806	
3147	0	32844	
3148	0	32832	
3149	0	32820	
3150	0	32828	
3151	0	32804	
3152	0	32704	
3153	0	32773	
3154	0	32756	
3155	0	32713	
3156	0	32629	
3157	0	32712	
3158	0	32776	
3159	0	32756	
3160	0	32784	
3161	0	32828	
3162	0	32805	
3163	0	32820	
3164	0	32772	
3165	0	32762	
3166	0	32796	
3167	0	32840	
3168	0	32828	
3169	0	32860	
3170	0	32796	
3171	0	32740	
3172	0	32740	
3173	0	32745	
3174	0	32720	
3175	0	32533	
3176	0	32664	
3177	0	32740	
3178	0	32868	
3179	0	32780	
3180	0	32884	
3181	0	32852	
3182	0	32800	
3183	0	32768	
3184	0	32832	
3185	0	32788	
3186	0	32792	
3187	0	32860	
3188	0	32799	
3189	0	32844	
3190	0	32735	
3191	0	32680	
3192	0	32724	
3193	0	32740	
3194	0	32664	
3195	0	32504	
3196	0	32725	
3197	0	32900	
3198	0	33012	
3199	0	32976	
3200	0	32940	
3201	0	32984	
3202	0	32876	
3203	0	32822	
3204	0	32812	
3205	0	32846	
3206	0	32836	
3207	0	32800	
3208	0	32837	
3209	0	32826	
3210	0	32796	
3211	0	32756	
3212	0	32638	
3213	0	32652	
3214	0	32676	
3215	0	32696	
3216	0	32692	
3217	0	32676	
3218	0	32800	
3219	0	32873	
3220	0	32856	
3221	0	32876	
3222	0	32844	
3223	0	32856	
3224	0	32832	
3225	0	32832	
3226	0	32784	
3227	0	32764	
3228	0	32848	
3229	0	32828	
3230	0	32752	
3231	0	32732	
3232	0	32748	
3233	0	32656	
3234	0	32692	
3235	0	32676	
3236	0	32740	
3237	0	32744	
3238	0	32736	
3239	0	32780	
3240	0	32812	
3241	0	32844	
3242	0	32836	
3243	0	32768	
3244	0	32829	
3245	0	32820	
3246	0	32768	
3247	0	32864	
3248	0	32812	
3249	0	32832	
3250	0	32756	
3251	0	32612	
3252	0	32700	
3253	0	32714	
3254	0	32748	
3255	0	32712	
3256	0	32760	
3257	0	32768	
3258	0	32844	
3259	0	32800	
3260	0	32828	
3261	0	32812	
3262	0	32824	
3263	0	32792	
3264	0	32840	
3265	0	32832	
3266	0	32804	
3267	0	32772	
3268	0	32828	
3269	0	32764	
3270	0	32716	
3271	0	32590	
3272	0	32580	
3273	0	32652	
3274	0	32744	
3275	0	32648	
3276	0	32632	
3277	0	32665	
3278	0	32692	
3279	0	32880	
3280	0	32808	
3281	0	32814	
3282	0	32876	
3283	0	32848	
3284	0	32800	
3285	0	32764	
3286	0	32732	
3287	0	32780	
3288	0	32764	
3289	0	32777	
3290	0	32840	
3291	0	32748	
3292	0	32684	
3293	0	32748	
3294	0	32792	
3295	0	32764	
3296	0	32744	
3297	0	32782	
3298	0	32824	
3299	0	32940	
3300	0	32853	
3301	0	32852	
3302	0	32848	
3303	0	32836	
3304	0	32796	
3305	0	32816	
3306	0	32788	
3307	0	32752	
3308	0	32796	
3309	0	32792	
3310	0	32748	
3311	0	32688	
3312	0	32664	
3313	0	32740	
3314	0	32820	
3315	0	32688	
3316	0	32788	
3317	0	32740	
3318	0	32772	
3319	0	32844	
3320	0	32820	
3321	0	32856	
3322	0	32804	
3323	0	32772	
3324	0	32780	
3325	0	32820	
3326	0	32828	
3327	0	32780	
3328	0	32812	
3329	0	32820	
3330	0	32825	
3331	0	32812	
3332	0	32785	
3333	0	32792	
3334	0	32776	
3335	0	32772	
3336	0	32806	
3337	0	32868	
3338	0	32824	
3339	0	32878	
3340	0	32880	
3341	0	32860	
3342	0	32832	
3343	0	32759	
3344	0	32808	
3345	0	32768	
3346	0	32765	
3347	0	32720	
3348	0	32709	
3349	0	32800	
3350	0	32700	
3351	0	32694	
3352	0	32636	
3353	0	32684	
3354	0	32728	
3355	0	32721	
3356	0	32671	
3357	0	32752	
3358	0	32724	
3359	0	32836	
3360	0	32756	
3361	0	32764	
3362	0	32804	
3363	0	32852	
3364	0	32776	
3365	0	32816	
3366	0	32812	
3367	0	32816	
3368	0	32868	
3369	0	32812	
3370	0	32776	
3371	0	32752	
3372	0	32672	
3373	0	32753	
3374	0	32780	
3375	0	32656	
3376	0	32756	
3377	0	32772	
3378	0	32836	
3379	0	32892	
3380	0	32856	
3381	0	32876	
3382	0	32832	
3383	0	32836	
3384	0	32852	
3385	0	32896	
3386	0	32808	
3387	0	32766	
3388	0	32792	
3389	0	32773	
3390	0	32764	
3391	0	32700	
3392	0	32668	
3393	0	32648	
3394	0	32736	
3395	0	32652	
3396	0	32692	
3397	0	32780	
3398	0	32796	
3399	0	32860	
3400	0	32838	
3401	0	32828	
3402	0	32940	
3403	0	32876	
3404	0	32872	
3405	0	32816	
3406	0	32844	
3407	0	32840	
3408	0	32844	
3409	0	32853	
3410	0	32748	
3411	0	32708	
3412	0	32688	
3413	0	32661	
3414	0	32636	
3415	0	32676	
3416	0	32644	
3417	0	32712	
3418	0	32772	
3419	0	32768	
3420	0	32880	
3421	0	32828	
3422	0	32868	
3423	0	32860	
3424	0	32840	
3425	0	32884	
3426	0	32800	
3427	0	32836	
3428	0	32824	
3429	0	32804	
3430	0	32768	
3431	0	32764	
3432	0	32792	
3433	0	32756	
3434	0	32812	
3435	0	32816	
3436	0	32820	
3437	0	32777	
3438	0	32808	
3439	0	32888	
3440	0	32888	
3441	0	32828	
3442	0	32824	
3443	0	32856	
3444	0	32744	
3445	0	32785	
3446	0	32741	
3447	0	32752	
3448	0	32712	
3449	0	32656	
3450	0	32708	
3451	0	32744	
3452	0	32661	
3453	0	32676	
3454	0	32652	
3455	0	32620	
3456	0	32632	
3457	0	32688	
3458	0	32702	
3459	0	32820	
3460	0	32840	
3461	0	32776	
3462	0	32776	
3463	0	32793	
3464	0	32740	
3465	0	32780	
3466	0	32816	
3467	0	32864	
3468	0	32860	
3469	0	32848	
3470	0	32822	
3471	0	32880	
3472	0	32812	
3473	0	32825	
3474	0	32812	
3475	0	32784	
3476	0	32820	
3477	0	32800	
3478	0	32820	
3479	0	32784	
3480	0	32797	
3481	0	32752	
3482	0	32792	
3483	0	32780	
3484	0	32794	
3485	0	32768	
3486	0	32708	
3487	0	32776	
3488	0	32720	
3489	0	32833	
3490	0	32736	
3491	0	32748	
3492	0	32756	
3493	0	32764	
3494	0	32820	
3495	0	32780	
3496	0	32772	
3497	0	32668	
3498	0	32648	
3499	0	32800	
3500	0	32772	
3501	0	32760	
3502	0	32756	
3503	0	32728	
3504	0	32696	
3505	0	32740	
3506	0	32740	
3507	0	32720	
3508	0	32712	
3509	0	32878	
3510	0	32756	
3511	0	32816	
3512	0	32784	
3513	0	32740	
3514	0	32740	
3515	0	32692	
3516	0	32760	
3517	0	32788	
3518	0	32804	
3519	0	32864	
3520	0	32820	
3521	0	32873	
3522	0	32813	
3523	0	32844	
3524	0	32708	
3525	0	32812	
3526	0	32782	
3527	0	32794	
3528	0	32836	
3529	0	32812	
3530	0	32740	
3531	0	32728	
3532	0	32672	
3533	0	32732	
3534	0	32728	
3535	0	32720	
3536	0	32765	
3537	0	32732	
3538	0	32744	
3539	0	32772	
3540	0	32792	
3541	0	32804	
3542	0	32796	
3543	0	32820	
3544	0	32828	
3545	0	32812	
3546	0	32836	
3547	0	32840	
3548	0	32872	
3549	0	32820	
3550	0	32788	
3551	0	32676	
3552	0	32624	
3553	0	32645	
3554	0	32668	
3555	0	32638	
3556	0	32692	
3557	0	32788	
3558	0	32793	
3559	0	32808	
3560	0	32796	
3561	0	32772	
3562	0	32852	
3563	0	32912	
3564	0	32956	
3565	0	32912	
3566	0	32868	
3567	0	32848	
3568	0	32840	
3569	0	32796	
3570	0	32848	
3571	0	32806	
3572	0	32776	
3573	0	32750	
3574	0	32676	
3575	0	32676	
3576	0	32724	
3577	0	32780	
3578	0	32800	
3579	0	32808	
3580	0	32812	
3581	0	32744	
3582	0	32744	
3583	0	32712	
3584	0	32816	
3585	0	32856	
3586	0	32800	
3587	0	32828	
3588	0	32804	
3589	0	32844	
3590	0	32788	
3591	0	32720	
3592	0	32720	
3593	0	32716	
3594	0	32624	
3595	0	32600	
3596	0	32620	
3597	0	32632	
3598	0	32800	
3599	0	32892	
3600	0	32908	
3601	0	32904	
3602	0	32844	
3603	0	32800	
3604	0	32812	
3605	0	32884	
3606	0	32808	
3607	0	32782	
3608	0	32820	
3609	0	32800	
3610	0	32816	
3611	0	32692	
3612	0	32724	
3613	0	32724	
3614	0	32668	
3615	0	32596	
3616	0	32645	
3617	0	32744	
3618	0	32780	
3619	0	32901	
3620	0	32824	
3621	0	32872	
3622	0	32792	
3623	0	32836	
3624	0	32836	
3625	0	32864	
3626	0	32864	
3627	0	32820	
3628	0	32864	
3629	0	32844	
3630	0	32864	
3631	0	32736	
3632	0	32708	
3633	0	32724	
3634	0	32712	
3635	0	32704	
3636	0	32776	
3637	0	32736	
3638	0	32840	
3639	0	32900	
3640	0	32924	
3641	0	32860	
3642	0	32720	
3643	0	32752	
3644	0	32700	
3645	0	32692	
3646	0	32724	
3647	0	32708	
3648	0	32748	
3649	0	32752	
3650	0	32764	
3651	0	32668	
3652	0	32696	
3653	0	32716	
3654	0	32772	
3655	0	32700	
3656	0	32748	
3657	0	32812	
3658	0	32800	
3659	0	32776	
3660	0	32828	
3661	0	32872	
3662	0	32848	
3663	0	32820	
3664	0	32840	
3665	0	32856	
3666	0	32816	
3667	0	32824	
3668	0	32868	
3669	0	32864	
3670	0	32876	
3671	0	32744	
3672	0	32705	
3673	0	32712	
3674	0	32732	
3675	0	32672	
3676	0	32700	
3677	0	32684	
3678	0	32840	
3679	0	32804	
3680	0	32796	
3681	0	32784	
3682	0	32828	
3683	0	32816	
3684	0	32732	
3685	0	32864	
3686	0	32804	
3687	0	32760	
3688	0	32812	
3689	0	32736	
3690	0	32689	
3691	0	32668	
3692	0	32652	
3693	0	32660	
3694	0	32648	
3695	0	32672	
3696	0	32632	
3697	0	32750	
3698	0	32728	
3699	0	32780	
3700	0	32841	
3701	0	32794	
3702	0	32780	
3703	0	32788	
3704	0	32808	
3705	0	32816	
3706	0	32836	
3707	0	32764	
3708	0	32809	
3709	0	32784	
3710	0	32836	
3711	0	32692	
3712	0	32660	
3713	0	32684	
3714	0	32686	
3715	0	32640	
3716	0	32620	
3717	0	32608	
3718	0	32736	
3719	0	32820	
3720	0	32824	
3721	0	32937	
3722	0	32910	
3723	0	32836	
3724	0	32860	
3725	0	32868	
3726	0	32868	
3727	0	32852	
3728	0	32896	
3729	0	32852	
3730	0	32800	
3731	0	32696	
3732	0	32700	
3733	0	32636	
3734	0	32628	
3735	0	32628	
3736	0	32608	
3737	0	32669	
3738	0	32782	
3739	0	32896	
3740	0	32850	
3741	0	32837	
3742	0	32836	
3743	0	32828	
3744	0	32744	
3745	0	32704	
3746	0	32780	
3747	0	32836	
3748	0	32828	
3749	0	32774	
3750	0	32804	
3751	0	32712	
3752	0	32712	
3753	0	32736	
3754	0	32768	
3755	0	32753	
3756	0	32736	
3757	0	32744	
3758	0	32800	
3759	0	32864	
3760	0	32824	
3761	0	32824	
3762	0	32880	
3763	0	32732	
3764	0	32736	
3765	0	32820	
3766	0	32832	
3767	0	32724	
3768	0	32869	
3769	0	32836	
3770	0	32824	
3771	0	32704	
3772	0	32620	
3773	0	32630	
3774	0	32785	
3775	0	32676	
3776	0	32656	
3777	0	32772	
3778	0	32869	
3779	0	32924	
3780	0	32848	
3781	0	32808	
3782	0	32924	
3783	0	32928	
3784	0	32884	
3785	0	32788	
3786	0	32804	
3787	0	32812	
3788	0	32820	
3789	0	32888	
3790	0	32769	
3791	0	32648	
3792	0	32648	
3793	0	32628	
3794	0	32708	
3795	0	32745	
3796	0	32732	
3797	0	32800	
3798	0	32760	
3799	0	32828	
3800	0	32789	
3801	0	32876	
3802	0	32804	
3803	0	32740	
3804	0	32744	
3805	0	32824	
3806	0	32836	
3807	0	32800	
3808	0	32820	
3809	0	32780	
3810	0	32828	
3811	0	32712	
3812	0	32736	
3813	0	32716	
3814	0	32792	
3815	0	32736	
3816	0	32736	
3817	0	32732	
3818	0	32760	
3819	0	32804	
3820	0	32720	
3821	0	32756	
3822	0	32720	
3823	0	32792	
3824	0	32724	
3825	0	32808	
3826	0	32812	
3827	0	32836	
3828	0	32792	
3829	0	32804	
3830	0	32784	
3831	0	32696	
3832	0	32780	
3833	0	32820	
3834	0	32828	
3835	0	32728	
3836	0	32668	
3837	0	32812	
3838	0	32740	
3839	0	32800	
3840	0	32798	
3841	0	32816	
3842	0	32828	
3843	0	32772	
3844	0	32820	
3845	0	32800	
3846	0	32856	
3847	0	32868	
3848	0	32880	
3849	0	32828	
3850	0	32828	
3851	0	32716	
3852	0	32624	
3853	0	32668	
3854	0	32736	
3855	0	32453	
3856	0	32372	
3857	0	32348	
3858	0	32516	
3859	0	32592	
3860	0	32648	
3861	0	32740	
3862	0	32752	
3863	0	32800	
3864	0	32808	
3865	0	32804	
3866	0	32888	
3867	0	32892	
3868	0	32936	
3869	0	32908	
3870	0	32892	
3871	0	32912	
3872	0	32884	
3873	0	32832	
3874	0	32764	
3875	0	32798	
3876	0	32782	
3877	0	32765	
3878	0	32873	
3879	0	32900	
3880	0	32932	
3881	0	32884	
3882	0	32828	
3883	0	32844	
3884	0	32848	
3885	0	32900	
3886	0	32892	
3887	0	32880	
3888	0	32900	
3889	0	32893	
3890	0	32834	
3891	0	32808	
3892	0	32775	
3893	0	32752	
3894	0	32792	
3895	0	32728	
3896	0	32764	
3897	0	32741	
3898	0	32833	
3899	0	32860	
3900	0	32828	
3901	0	32856	
3902	0	32796	
3903	0	32768	
3904	0	32728	
3905	0	32653	
3906	0	32704	
3907	0	32728	
3908	0	32792	
3909	0	32796	
3910	0	32784	
3911	0	32712	
3912	0	32724	
3913	0	32726	
3914	0	32720	
3915	0	32660	
3916	0	32680	
3917	0	32732	
3918	0	32836	
3919	0	32880	
3920	0	32846	
3921	0	32832	
3922	0	32892	
3923	0	32748	
3924	0	32725	
3925	0	32732	
3926	0	32762	
3927	0	32812	
3928	0	32776	
3929	0	32838	
3930	0	32756	
3931	0	32748	
3932	0	32748	
3933	0	32660	
3934	0	32752	
3935	0	32696	
3936	0	32740	
3937	0	32792	
3938	0	32852	
3939	0	32788	
3940	0	32908	
3941	0	32768	
3942	0	32820	
3943	0	32812	
3944	0	32744	
3945	0	32928	
3946	0	32869	
3947	0	32848	
3948	0	32840	
3949	0	32804	
3950	0	32788	
3951	0	32760	
3952	0	32716	
3953	0	32680	
3954	0	32712	
3955	0	32608	
3956	0	32656	
3957	0	32660	
3958	0	32700	
3959	0	32700	
3960	0	32800	
3961	0	32840	
3962	0	32805	
3963	0	32799	
3964	0	32796	
3965	0	32796	
3966	0	32772	
3967	0	32760	
3968	0	32824	
3969	0	32824	
3970	0	32812	
3971	0	32761	
3972	0	32716	
3973	0	32804	
3974	0	32748	
3975	0	32724	
3976	0	32684	
3977	0	32780	
3978	0	32776	
3979	0	32852	
3980	0	32880	
3981	0	32932	
3982	0	32844	
3983	0	32824	
3984	0	32812	
3985	0	32840	
3986	0	32832	
3987	0	32800	
3988	0	32834	
3989	0	32856	
3990	0	32844	
3991	0	32696	
3992	0	32732	
3993	0	32780	
3994	0	32752	
3995	0	32736	
3996	0	32660	
3997	0	32597	
3998	0	32580	
3999	0	32668	
4000	0	32716	
4001	0	32756	
4002	0	32717	
4003	0	32736	
4004	0	32773	
4005	0	32840	
4006	0	32856	
4007	0	32784	
4008	0	32804	
4009	0	32884	
4010	0	32812	
4011	0	32740	
4012	0	32706	
4013	0	32720	
4014	0	32672	
4015	0	32644	
4016	0	32692	
4017	0	32748	
4018	0	32800	
4019	0	32804	
4020	0	32916	
4021	0	32868	
4022	0	32800	
4023	0	32812	
4024	0	32780	
4025	0	32888	
4026	0	32764	
4027	0	32724	
4028	0	32924	
4029	0	32824	
4030	0	32832	
4031	0	32772	
4032	0	32792	
4033	0	32760	
4034	0	32636	
4035	0	32712	
4036	0	32652	
4037	0	32812	
4038	0	32772	
4039	0	32852	
4040	0	32840	
4041	0	32792	
4042	0	32804	
4043	0	32781	
4044	0	32792	
4045	0	32820	
4046	0	32756	
4047	0	32884	
4048	0	32848	
4049	0	32820	
4050	0	32852	
4051	0	32800	
4052	0	32780	
4053	0	32756	
4054	0	32780	
4055	0	32672	
4056	0	32808	
4057	0	32772	
4058	0	32832	
4059	0	32870	
4060	0	32853	
4061	0	32896	
4062	0	32760	
4063	0	32740	
4064	0	32660	
4065	0	32748	
4066	0	32673	
4067	0	32640	
4068	0	32640	
4069	0	32696	
4070	0	32748	
4071	0	32639	
4072	0	32672	
4073	0	32760	
4074	0	32709	
4075	0	32712	
4076	0	32745	
4077	0	32716	
4078	0	32772	
4079	0	32896	
4080	0	32872	
4081	0	32912	
4082	0	32828	
4083	0	32812	
4084	0	32844	
4085	0	32856	
4086	0	32868	
4087	0	32824	
4088	0	32912	
4089	0	32791	
4090	0	32780	
4091	0	32792	
4092	0	32705	
4093	0	32772	
4094	0	32720	
4095	0	32700	
4096	0	32768	
4097	0	32732	
4098	0	32800	
4099	0	32901	
4100	0	32846	
4101	0	32812	
4102	0	32844	
4103	0	32756	
4104	0	32784	
4105	0	32821	
4106	0	32744	
4107	0	32800	
4108	0	32824	
4109	0	32800	
4110	0	32792	
4111	0	32676	
4112	0	32744	
4113	0	32713	
4114	0	32778	
4115	0	32708	
4116	0	32744	
4117	0	32724	
4118	0	32808	
4119	0	32928	
4120	0	32900	
4121	0	32880	
4122	0	32860	
4123	0	32828	
4124	0	32792	
4125	0	32736	
4126	0	32768	
4127	0	32836	
4128	0	32788	
4129	0	32732	
4130	0	32801	
4131	0	32676	
4132	0	32652	
4133	0	32808	
4134	0	32708	
4135	0	32656	
4136	0	32712	
4137	0	32768	
4138	0	32768	
4139	0	32776	
4140	0	32749	
4141	0	32784	
4142	0	32746	
4143	0	32773	
4144	0	32800	
4145	0	32884	
4146	0	32932	
4147	0	32880	
4148	0	32788	
4149	0	32868	
4150	0	32816	
4151	0	32736	
4152	0	32784	
4153	0	32656	
4154	0	32700	
4155	0	32732	
4156	0	32764	
4157	0	32748	
4158	0	32744	
4159	0	32804	
4160	0	32808	
4161	0	32780	
4162	0	32748	
4163	0	32775	
4164	0	32780	
4165	0	32876	
4166	0	32862	
4167	0	32856	
4168	0	32864	
4169	0	32924	
4170	0	32800	
4171	0	32820	
4172	0	32808	
4173	0	32750	
4174	0	32736	
4175	0	32676	
4176	0	32656	
4177	0	32708	
4178	0	32741	
4179	0	32836	
4180	0	32792	
4181	0	32834	
4182	0	32824	
4183	0	32708	
4184	0	32726	
4185	0	32704	
4186	0	32700	
4187	0	32772	
4188	0	32769	
4189	0	32788	
4190	0	32768	
4191	0	32690	
4192	0	32696	
4193	0	32728	
4194	0	32824	
4195	0	32776	
4196	0	32744	
4197	0	32820	
4198	0	32830	
4199	0	32820	
4200	0	32768	
4201	0	32772	
4202	0	32724	
4203	0	32740	
4204	0	32716	
4205	0	32808	
4206	0	32860	
4207	0	32820	
4208	0	32808	
4209	0	32800	
4210	0	32840	
4211	0	32712	
4212	0	32752	
4213	0	32712	
4214	0	32752	
4215	0	32796	
4216	0	32764	
4217	0	32788	
4218	0	32804	
4219	0	32820	
4220	0	32790	
4221	0	32704	
4222	0	32744	
4223	0	32817	
4224	0	32860	
4225	0	32868	
4226	0	32852	
4227	0	32840	
4228	0	32804	
4229	0	32820	
4230	0	32720	
4231	0	32680	
4232	0	32704	
4233	0	32676	
4234	0	32760	
4235	0	32756	
4236	0	32744	
4237	0	32760	
4238	0	32836	
4239	0	32796	
4240	0	32776	
4241	0	32828	
4242	0	32800	
4243	0	32780	
4244	0	32782	
4245	0	32812	
4246	0	32736	
4247	0	32780	
4248	0	32744	
4249	0	32720	
4250	0	32652	
4251	0	32620	
4252	0	32708	
4253	0	32728	
4254	0	32704	
4255	0	32760	
4256	0	32676	
4257	0	32844	
4258	0	32868	
4259	0	32784	
4260	0	32777	
4261	0	32868	
4262	0	32808	
4263	0	32820	
4264	0	32744	
4265	0	32784	
4266	0	32788	
4267	0	32896	
4268	0	32924	
4269	0	32892	
4270	0	32782	
4271	0	32830	
4272	0	32776	
4273	0	32860	
4274	0	32820	
4275	0	32812	
4276	0	32736	
4277	0	32852	
4278	0	32788	
4279	0	32856	
4280	0	32792	
4281	0	32744	
4282	0	32680	
4283	0	32656	
4284	0	32657	
4285	0	32724	
4286	0	32748	
4287	0	32768	
4288	0	32733	
4289	0	32772	
4290	0	32772	
4291	0	32816	
4292	0	32822	
4293	0	32756	
4294	0	32778	
4295	0	32748	
4296	0	32721	
4297	0	32751	
4298	0	32808	
4299	0	32796	
4300	0	32752	
4301	0	32792	
4302	0	32868	
4303	0	32820	
4304	0	32704	
4305	0	32720	
4306	0	32852	
4307	0	32828	
4308	0	32900	
4309	0	32800	
4310	0	32832	
4311	0	32728	
4312	0	32668	
4313	0	32684	
4314	0	32720	
4315	0	32749	
4316	0	32748	
4317	0	32836	
4318	0	32860	
4319	0	32868	
4320	0	32900	
4321	0	32860	
4322	0	32844	
4323	0	32740	
4324	0	32772	
4325	0	32828	
4326	0	32708	
4327	0	32796	
4328	0	32846	
4329	0	32828	
4330	0	32744	
4331	0	32708	
4332	0	32684	
4333	0	32774	
4334	0	32748	
4335	0	32644	
4336	0	32704	
4337	0	32756	
4338	0	32742	
4339	0	32844	
4340	0	32792	
4341	0	32856	
4342	0	32808	
4343	0	32816	
4344	0	32776	
4345	0	32756	
4346	0	32718	
4347	0	32676	
4348	0	32696	
4349	0	32816	
4350	0	32748	
4351	0	32652	
4352	0	32700	
4353	0	32676	
4354	0	32768	
4355	0	32808	
4356	0	32780	
4357	0	32708	
4358	0	32789	
4359	0	32828	
4360	0	32852	
4361	0	32816	
4362	0	32832	
4363	0	32788	
4364	0	32780	
4365	0	32824	
4366	0	32904	
4367	0	32856	
4368	0	32876	
4369	0	32816	
4370	0	32820	
4371	0	32760	
4372	0	32756	
4373	0	32748	
4374	0	32760	
4375	0	32796	
4376	0	32708	
4377	0	32692	
4378	0	32792	
4379	0	32848	
4380	0	32840	
4381	0	32820	
4382	0	32862	
4383	0	32804	
4384	0	32780	
4385	0	32816	
4386	0	32840	
4387	0	32824	
4388	0	32788	
4389	0	32800	
4390	0	32815	
4391	0	32684	
4392	0	32672	
4393	0	32640	
4394	0	32656	
4395	0	32772	
4396	0	32696	
4397	0	32712	
4398	0	32704	
4399	0	32768	
4400	0	32758	
4401	0	32808	
4402	0	32804	
4403	0	32824	
4404	0	32816	
4405	0	32868	
4406	0	32820	
4407	0	32796	
4408	0	32852	
4409	0	32868	
4410	0	32860	
4411	0	32748	
4412	0	32780	
4413	0	32800	
4414	0	32748	
4415	0	32772	
4416	0	32788	
4417	0	32776	
4418	0	32800	
4419	0	32836	
4420	0	32796	
4421	0	32800	
4422	0	32800	
4423	0	32752	
4424	0	32768	
4425	0	32808	
4426	0	32740	
4427	0	32828	
4428	0	32740	
4429	0	32720	
4430	0	32720	
4431	0	32708	
4432	0	32753	
4433	0	32756	
4434	0	32736	
4435	0	32812	
4436	0	32732	
4437	0	32820	
4438	0	32816	
4439	0	32796	
4440	0	32876	
4441	0	32824	
4442	0	32840	
4443	0	32800	
4444	0	32792	
4445	0	32772	
4446	0	32800	
4447	0	32756	
4448	0	32820	
4449	0	32764	
4450	0	32740	
4451	0	32652	
4452	0	32688	
4453	0	32764	
4454	0	32670	
4455	0	32680	
4456	0	32760	
4457	0	32768	
4458	0	32781	
4459	0	32820	
4460	0	32836	
4461	0	32860	
4462	0	32840	
4463	0	32848	
4464	0	32836	
4465	0	32704	
4466	0	32820	
4467	0	32817	
4468	0	32833	
4469	0	32804	
4470	0	32740	
4471	0	32716	
4472	0	32740	
4473	0	32782	
4474	0	32840	
4475	0	32725	
4476	0	32728	
4477	0	32804	
4478	0	32720	
4479	0	32744	
4480	0	32704	
4481	0	32752	
4482	0	32760	
4483	0	32758	
4484	0	32696	
4485	0	32805	
4486	0	32934	
4487	0	32884	
4488	0	32848	
4489	0	32868	
4490	0	32801	
4491	0	32816	
4492	0	32718	
4493	0	32776	
4494	0	32804	
4495	0	32748	
4496	0	32768	
4497	0	32808	
4498	0	32808	
4499	0	32880	
4500	0	32900	
4501	0	32860	
4502	0	32860	
4503	0	32748	
4504	0	32797	
4505	0	32776	
4506	0	32792	
4507	0	32780	
4508	0	32736	
4509	0	32712	
4510	0	32672	
4511	0	32654	
4512	0	32680	
4513	0	32688	
4514	0	32700	
4515	0	32656	
4516	0	32674	
4517	0	32736	
4518	0	32732	
4519	0	32788	
4520	0	32808	
4521	0	32789	
4522	0	32816	
4523	0	32880	
4524	0	32828	
4525	0	32864	
4526	0	32864	
4527	0	32828	
4528	0	32848	
4529	0	32832	
4530	0	32806	
4531	0	32820	
4532	0	32772	
4533	0	32776	
4534	0	32741	
4535	0	32684	
4536	0	32708	
4537	0	32719	
4538	0	32776	
4539	0	32820	
4540	0	32732	
4541	0	32856	
4542	0	32888	
4543	0	32834	
4544	0	32864	
4545	0	32756	
4546	0	32768	
4547	0	32792	
4548	0	32796	
4549	0	32752	
4550	0	32733	
4551	0	32716	
4552	0	32668	
4553	0	32684	
4554	0	32672	
4555	0	32700	
4556	0	32780	
4557	0	32736	
4558	0	32804	
4559	0	32892	
4560	0	32824	
4561	0	32912	
4562	0	32792	
4563	0	32800	
4564	0	32780	
4565	0	32848	
4566	0	32812	
4567	0	32824	
4568	0	32876	
4569	0	32756	
4570	0	32760	
4571	0	32692	
4572	0	32688	
4573	0	32668	
4574	0	32680	
4575	0	32676	
4576	0	32708	
4577	0	32764	
4578	0	32800	
4579	0	32800	
4580	0	32824	
4581	0	32784	
4582	0	32832	
4583	0	32840	
4584	0	32776	
4585	0	32900	
4586	0	32868	
4587	0	32820	
4588	0	32820	
4589	0	32860	
4590	0	32872	
4591	0	32720	
4592	0	32674	
4593	0	32764	
4594	0	32692	
4595	0	32688	
4596	0	32644	
4597	0	32636	
4598	0	32816	
4599	0	32828	
4600	0	32776	
4601	0	32792	
4602	0	32852	
4603	0	32756	
4604	0	32812	
4605	0	32756	
4606	0	32780	
4607	0	32736	
4608	0	32828	
4609	0	32812	
4610	0	32784	
4611	0	32765	
4612	0	32800	
4613	0	32764	
4614	0	32836	
4615	0	32720	
4616	0	32741	
4617	0	32734	
4618	0	32816	
4619	0	32756	
4620	0	32832	
4621	0	32836	
4622	0	32837	
4623	0	32808	
4624	0	32864	
4625	0	32844	
4626	0	32836	
4627	0	32812	
4628	0	32868	
4629	0	32812	
4630	0	32768	
4631	0	32678	
4632	0	32708	
4633	0	32728	
4634	0	32728	
4635	0	32740	
4636	0	32701	
4637	0	32764	
4638	0	32688	
4639	0	32708	
4640	0	32812	
4641	0	32864	
4642	0	32844	
4643	0	32808	
4644	0	32780	
4645	0	32868	
4646	0	32832	
4647	0	32804	
4648	0	32788	
4649	0	32708	
4650	0	32693	
4651	0	32660	
4652	0	32636	
4653	0	32736	
4654	0	32784	
4655	0	32820	
4656	0	32752	
4657	0	32788	
4658	0	32824	
4659	0	32860	
4660	0	32896	
4661	0	32884	
4662	0	32849	
4663	0	32768	
4664	0	32756	
4665	0	32744	
4666	0	32752	
4667	0	32769	
4668	0	32888	
4669	0	32816	
4670	0	32752	
4671	0	32672	
4672	0	32737	
4673	0	32712	
4674	0	32712	
4675	0	32736	
4676	0	32684	
4677	0	32664	
4678	0	32836	
4679	0	32752	
4680	0	32772	
4681	0	32900	
4682	0	32900	
4683	0	32896	
4684	0	32840	
4685	0	32832	
4686	0	32788	
4687	0	32736	
4688	0	32704	
4689	0	32894	
4690	0	32720	
4691	0	32786	
4692	0	32772	
4693	0	32802	
4694	0	32764	
4695	0	32728	
4696	0	32708	
4697	0	32740	
4698	0	32692	
4699	0	32768	
4700	0	32796	
4701	0	32840	
4702	0	32724	
4703	0	32832	
4704	0	32848	
4705	0	32809	
4706	0	32732	
4707	0	32840	
4708	0	32808	
4709	0	32856	
4710	0	32884	
4711	0	32796	
4712	0	32740	
4713	0	32708	
4714	0	32716	
4715	0	32676	
4716	0	32740	
4717	0	32764	
4718	0	32784	
4719	0	32804	
4720	0	32780	
4721	0	32772	
4722	0	32804	
4723	0	32784	
4724	0	32816	
4725	0	32764	
4726	0	32813	
4727	0	32756	
4728	0	32748	
4729	0	32716	
4730	0	32828	
4731	0	32700	
4732	0	32656	
4733	0	32736	
4734	0	32700	
4735	0	32796	
4736	0	32768	
4737	0	32825	
4738	0	32776	
4739	0	32877	
4740	0	32948	
4741	0	32972	
4742	0	32977	
4743	0	32981	
4744	0	32856	
4745	0	32798	
4746	0	32837	
4747	0	32764	
4748	0	32784	
4749	0	32832	
4750	0	32716	
4751	0	32704	
4752	0	32648	
4753	0	32680	
4754	0	32704	
4755	0	32712	
4756	0	32704	
4757	0	32772	
4758	0	32784	
4759	0	32924	
4760	0	32808	
4761	0	32878	
4762	0	32820	
4763	0	32768	
4764	0	32809	
4765	0	32796	
4766	0	32708	
4767	0	32788	
4768	0	32844	
4769	0	32772	
4770	0	32772	
4771	0	32720	
4772	0	32660	
4773	0	32660	
4774	0	32692	
4775	0	32704	
4776	0	32768	
4777	0	32792	
4778	0	32844	
4779	0	32801	
4780	0	32806	
4781	0	32832	
4782	0	32804	
4783	0	32756	
4784	0	32780	
4785	0	32736	
4786	0	32768	
4787	0	32816	
4788	0	32728	
4789	0	32775	
4790	0	32830	
4791	0	32728	
4792	0	32652	
4793	0	32588	
4794	0	32692	
4795	0	32704	
4796	0	32704	
4797	0	32664	
4798	0	32700	
4799	0	32896	
4800	0	32901	
4801	0	32916	
4802	0	32972	
4803	0	32920	
4804	0	32824	
4805	0	32804	
4806	0	32816	
4807	0	32776	
4808	0	32796	
4809	0	32848	
4810	0	32828	
4811	0	32684	
4812	0	32608	
4813	0	32624	
4814	0	32748	
4815	0	32576	
4816	0	32632	
4817	0	32600	
4818	0	32668	
4819	0	32768	
4820	0	32888	
4821	0	32888	
4822	0	33024	
4823	0	32932	
4824	0	32876	
4825	0	32820	
4826	0	32828	
4827	0	32724	
4828	0	32756	
4829	0	32868	
4830	0	32805	
4831	0	32832	
4832	0	32784	
4833	0	32772	
4834	0	32748	
4835	0	32784	
4836	0	32792	
4837	0	32796	
4838	0	32804	
4839	0	32728	
4840	0	32812	
4841	0	32744	
4842	0	32740	
4843	0	32720	
4844	0	32741	
4845	0	32784	
4846	0	32768	
4847	0	32812	
4848	0	32765	
4849	0	32700	
4850	0	32752	
4851	0	32632	
4852	0	32596	
4853	0	32636	
4854	0	32772	
4855	0	32700	
4856	0	32792	
4857	0	32804	
4858	0	32844	
4859	0	32870	
4860	0	32876	
4861	0	32901	
4862	0	32832	
4863	0	32812	
4864	0	32788	
4865	0	32828	
4866	0	32828	
4867	0	32836	
4868	0	32780	
4869	0	32828	
4870	0	32748	
4871	0	32704	
4872	0	32692	
4873	0	32740	
4874	0	32756	
4875	0	32830	
4876	0	32932	
4877	0	32856	
4878	0	32846	
4879	0	32880	
4880	0	32832	
4881	0	32864	
4882	0	32796	
4883	0	32711	
4884	0	32636	
4885	0	32636	
4886	0	32652	
4887	0	32628	
4888	0	32572	
4889	0	32568	
4890	0	32540	
4891	0	32488	
4892	0	32472	
4893	0	32516	
4894	0	32688	
4895	0	32804	
4896	0	32836	
4897	0	32944	
4898	0	32960	
4899	0	32948	
4900	0	32956	
4901	0	33025	
4902	0	32908	
4903	0	32892	
4904	0	32864	
4905	0	32836	
4906	0	32896	
4907	0	32800	
4908	0	32768	
4909	0	32832	
4910	0	32768	
4911	0	32716	
4912	0	32684	
4913	0	32712	
4914	0	32812	
4915	0	32796	
4916	0	32748	
4917	0	32784	
4918	0	32845	
4919	0	32900	
4920	0	32856	
4921	0	32860	
4922	0	32832	
4923	0	32880	
4924	0	32856	
4925	0	32824	
4926	0	32828	
4927	0	32845	
4928	0	32768	
4929	0	32832	
4930	0	32726	
4931	0	32748	
4932	0	32644	
4933	0	32680	
4934	0	32725	
4935	0	32700	
4936	0	32676	
4937	0	32668	
4938	0	32740	
4939	0	32824	
4940	0	32794	
4941	0	32804	
4942	0	32812	
4943	0	32728	
4944	0	32712	
4945	0	32748	
4946	0	32808	
4947	0	32720	
4948	0	32752	
4949	0	32684	
4950	0	32725	
4951	0	32688	
4952	0	32560	
4953	0	32568	
4954	0	32717	
4955	0	32728	
4956	0	32720	
4957	0	32756	
4958	0	32836	
4959	0	32904	
4960	0	32884	
4961	0	33004	
4962	0	33040	
4963	0	32896	
4964	0	32853	
4965	0	32869	
4966	0	32920	
4967	0	32908	
4968	0	32904	
4969	0	32832	
4970	0	32784	
4971	0	32708	
4972	0	32752	
4973	0	32696	
4974	0	32784	
4975	0	32648	
4976	0	32728	
4977	0	32705	
4978	0	32836	
4979	0	32788	
4980	0	32828	
4981	0	32804	
4982	0	32784	
4983	0	32764	
4984	0	32716	
4985	0	32744	
4986	0	32736	
4987	0	32772	
4988	0	32764	
4989	0	32764	
4990	0	32734	
4991	0	32544	
4992	0	32396	
4993	0	32268	
4994	0	32340	
4995	0	32246	
4996	0	32228	
4997	0	32236	
4998	0	32368	
4999	0	32420	
5000	0	32518	
5001	0	32752	
5002	0	32996	
5003	0	33041	
5004	0	32964	
5005	0	33072	
5006	0	33156	
5007	0	33108	
5008	0	33124	
5009	0	33201	
5010	0	33340	
5011	0	33508	
5012	0	33649	
5013	0	33708	
5014	0	33672	
5015	0	33720	
5016	0	33276	
5017	0	33060	
5018	0	33084	
5019	0	32964	
5020	0	33016	
5021	0	33052	
5022	0	32688	
5023	0	32412	
5024	0	31960	
5025	0	31909	
5026	0	31904	
5027	0	31968	
5028	0	31996	
5029	0	31818	
5030	0	31604	
5031	0	31600	
5032	0	31804	
5033	0	31784	
5034	0	31868	
5035	0	32020	
5036	0	32196	
5037	0	32560	
5038	0	32804	
5039	0	33216	
5040	0	33176	
5041	0	33396	
5042	0	33576	
5043	0	33913	
5044	0	33992	
5045	0	33809	
5046	0	33584	
5047	0	33308	
5048	0	32792	
5049	0	31737	
5050	0	31724	
5051	0	31768	
5052	0	31908	
5053	0	32248	
5054	0	32257	
5055	0	32200	
5056	0	31925	
5057	0	32268	
5058	0	32996	
5059	0	33332	
5060	0	33724	
5061	0	34444	
5062	0	34920	
5063	0	35268	
5064	0	35044	
5065	0	34756	
5066	0	34184	
5067	0	33887	
5068	0	33548	
5069	0	33632	
5070	0	33756	
5071	0	33197	
5072	0	32685	
5073	0	32568	
5074	0	32336	
5075	0	32028	
5076	0	31068	
5077	0	30700	
5078	0	31088	
5079	0	31565	
5080	0	31808	
5081	0	31996	
5082	0	32192	
5083	0	32084	
5084	0	32376	
5085	0	32668	
5086	0	32752	
5087	0	32690	
5088	0	32823	
5089	0	32700	
5090	0	32261	
5091	0	32188	
5092	0	32368	
5093	0	32192	
5094	0	31996	
5095	0	31352	
5096	0	31552	
5097	0	30820	
5098	0	30132	
5099	0	30272	
5100	0	30348	
5101	0	32180	
5102	0	33348	
5103	0	34028	
5104	0	33518	
5105	0	34364	
5106	0	34184	
5107	0	34188	
5108	0	32964	
5109	0	33292	
5110	0	34724	
5111	0	36212	
5112	0	37048	
5113	0	36480	
5114	0	35220	
5115	0	36144	
5116	0	35704	
5117	0	34740	
5118	0	33128	
5119	0	31908	
5120	0	32188	
5121	0	31436	
5122	0	31856	
5123	0	31897	
5124	0	28508	
5125	0	27148	
5126	0	29296	
5127	0	31485	
5128	0	33136	
5129	0	34629	
5130	0	35300	
5131	0	35256	
5132	0	35040	
5133	0	35244	
5134	0	35316	
5135	0	35284	
5136	0	35076	
5137	0	34724	
5138	0	34048	
5139	0	33280	
5140	0	32076	
5141	0	31340	
5142	0	32112	
5143	0	30144	
5144	0	29340	
5145	0	30468	
5146	0	31356	
5147	0	31980	
5148	0	32012	
5149	0	31508	
5150	0	31700	
5151	0	32836	
5152	0	33452	
5153	0	33252	
5154	0	32692	
5155	0	32724	
5156	0	32184	
5157	0	32028	
5158	0	31948	
5159	0	31812	
5160	0	32060	
5161	0	32336	
5162	0	33036	
5163	0	32864	
5164	0	32616	
5165	0	32688	
5166	0	33032	
5167	0	33144	
5168	0	33344	
5169	0	33508	
5170	0	33280	
5171	0	32888	
5172	0	32504	
5173	0	32680	
5174	0	32868	
5175	0	32882	
5176	0	31886	
5177	0	31408	
5178	0	31440	
5179	0	31912	
5180	0	32560	
5181	0	33168	
5182	0	33312	
5183	0	32356	
5184	0	31720	
5185	0	30420	
5186	0	29152	
5187	0	31376	
5188	0	32826	
5189	0	32764	
5190	0	30853	
5191	0	27796	
5192	0	27588	
5193	0	30212	
5194	0	32572	
5195	0	35372	
5196	0	36740	
5197	0	36056	
5198	0	35964	
5199	0	35960	
5200	0	34896	
5201	0	35216	
5202	0	35380	
5203	0	33408	
5204	0	34612	
5205	0	37408	
5206	0	38752	
5207	0	38920	
5208	0	39628	
5209	0	38380	
5210	0	36160	
5211	0	34404	
5212	0	33724	
5213	0	33472	
5214	0	32392	
5215	0	31472	
5216	0	29785	
5217	0	28892	
5218	0	29044	
5219	0	28300	
5220	0	28896	
5221	0	29608	
5222	0	28148	
5223	0	24624	
5224	0	26600	
5225	0	29252	
5226	0	31140	
5227	0	32852	
5228	0	33948	
5229	0	34600	
5230	0	34956	
5231	0	35584	
5232	0	35285	
5233	0	35648	
5234	0	35445	
5235	0	35008	
5236	0	35096	
5237	0	34660	
5238	0	33948	
5239	0	33036	
5240	0	32208	
5241	0	31356	
5242	0	31260	
5243	0	31400	
5244	0	31660	
5245	0	31684	
5246	0	31344	
5247	0	31180	
5248	0	31556	
5249	0	31692	
5250	0	31936	
5251	0	32348	
5252	0	32788	
5253	0	32428	
5254	0	32117	
5255	0	32237	
5256	0	32548	
5257	0	32784	
5258	0	32784	
5259	0	32572	
5260	0	32788	
5261	0	33056	
5262	0	32764	
5263	0	32652	
5264	0	32740	
5265	0	32892	
5266	0	32785	
5267	0	32540	
5268	0	32468	
5269	0	33068	
5270	0	32336	
5271	0	31444	
5272	0	31206	
5273	0	31628	
5274	0	31852	
5275	0	31532	
5276	0	34800	
5277	0	32620	
5278	0	31088	
5279	0	30036	
5280	0	29580	
5281	0	30564	
5282	0	33480	
5283	0	34908	
5284	0	36004	
5285	0	36672	
5286	0	37408	
5287	0	37380	
5288	0	36988	
5289	0	35980	
5290	0	34876	
5291	0	33345	
5292	0	32408	
5293	0	31484	
5294	0	31296	
5295	0	30924	
5296	0	28912	
5297	0	29450	
5298	0	30000	
5299	0	28426	
5300	0	29028	
5301	0	31820	
5302	0	33588	
5303	0	35029	
5304	0	36404	
5305	0	37132	
5306	0	37588	
5307	0	37468	
5308	0	37664	
5309	0	37204	
5310	0	36420	
5311	0	35080	
5312	0	33644	
5313	0	32744	
5314	0	31936	
5315	0	31196	
5316	0	30048	
5317	0	29088	
5318	0	27528	
5319	0	26408	
5320	0	27456	
5321	0	28928	
5322	0	30412	
5323	0	31476	
5324	0	33284	
5325	0	33018	
5326	0	31872	
5327	0	32312	
5328	0	34016	
5329	0	34528	
5330	0	35056	
5331	0	35124	
5332	0	34768	
5333	0	34540	
5334	0	33924	
5335	0	33676	
5336	0	33252	
5337	0	32348	
5338	0	32062	
5339	0	32149	
5340	0	32542	
5341	0	33128	
5342	0	33716	
5343	0	33956	
5344	0	32813	
5345	0	31332	
5346	0	30588	
5347	0	31664	
5348	0	32036	
5349	0	32144	
5350	0	32556	
5351	0	32476	
5352	0	32788	
5353	0	33000	
5354	0	32852	
5355	0	32988	
5356	0	32188	
5357	0	26516	
5358	0	27000	
5359	0	29392	
5360	0	31672	
5361	0	34724	
5362	0	36060	
5363	0	36444	
5364	0	35344	
5365	0	34321	
5366	0	34569	
5367	0	34144	
5368	0	35564	
5369	0	35436	
5370	0	35096	
5371	0	34360	
5372	0	33060	
5373	0	30144	
5374	0	28856	
5375	0	28301	
5376	0	29088	
5377	0	31712	
5378	0	34168	
5379	0	36644	
5380	0	38232	
5381	0	37120	
5382	0	35060	
5383	0	31480	
5384	0	30756	
5385	0	29920	
5386	0	29204	
5387	0	30397	
5388	0	32428	
5389	0	34333	
5390	0	33592	
5391	0	31081	
5392	0	32176	
5393	0	34528	
5394	0	36108	
5395	0	36628	
5396	0	36760	
5397	0	36288	
5398	0	35304	
5399	0	34312	
5400	0	31696	
5401	0	30924	
5402	0	30632	
5403	0	28776	
5404	0	28464	
5405	0	30064	
5406	0	30408	
5407	0	31952	
5408	0	33716	
5409	0	33772	
5410	0	34180	
5411	0	34832	
5412	0	34384	
5413	0	33928	
5414	0	33848	
5415	0	33213	
5416	0	33428	
5417	0	33756	
5418	0	33492	
5419	0	32700	
5420	0	32376	
5421	0	31896	
5422	0	31084	
5423	0	31132	
5424	0	31076	
5425	0	30940	
5426	0	31162	
5427	0	31386	
5428	0	31680	
5429	0	32872	
5430	0	33428	
5431	0	33304	
5432	0	32392	
5433	0	30396	
5434	0	29430	
5435	0	29069	
5436	0	29857	
5437	0	30872	
5438	0	32420	
5439	0	32880	
5440	0	34020	
5441	0	35220	
5442	0	33292	
5443	0	31860	
5444	0	34000	
5445	0	35280	
5446	0	36240	
5447	0	36596	
5448	0	36780	
5449	0	35596	
5450	0	35184	
5451	0	34276	
5452	0	31968	
5453	0	30652	
5454	0	30584	
5455	0	31368	
5456	0	32868	
5457	0	34100	
5458	0	33972	
5459	0	34156	
5460	0	33812	
5461	0	33472	
5462	0	32252	
5463	0	33064	
5464	0	33328	
5465	0	32848	
5466	0	31620	
5467	0	32040	
5468	0	31164	
5469	0	30772	
5470	0	31544	
5471	0	31388	
5472	0	31396	
5473	0	31929	
5474	0	32644	
5475	0	32700	
5476	0	31688	
5477	0	31821	
5478	0	33216	
5479	0	34736	
5480	0	35208	
5481	0	35200	
5482	0	34332	
5483	0	32886	
5484	0	30390	
5485	0	30364	
5486	0	30868	
5487	0	31284	
5488	0	32380	
5489	0	32924	
5490	0	33444	
5491	0	33888	
5492	0	33821	
5493	0	33980	
5494	0	33804	
5495	0	34024	
5496	0	33120	
5497	0	32540	
5498	0	32684	
5499	0	33060	
5500	0	33088	
5501	0	33088	
5502	0	32380	
5503	0	31908	
5504	0	31997	
5505	0	32780	
5506	0	32992	
5507	0	33576	
5508	0	33692	
5509	0	33892	
5510	0	33972	
5511	0	33780	
5512	0	33121	
5513	0	32146	
5514	0	30844	
5515	0	29604	
5516	0	29780	
5517	0	29664	
5518	0	30820	
5519	0	32704	
5520	0	31665	
5521	0	29308	
5522	0	29942	
5523	0	31380	
5524	0	32860	
5525	0	32076	
5526	0	32472	
5527	0	36116	
5528	0	37388	
5529	0	38116	
5530	0	38548	
5531	0	38772	
5532	0	37044	
5533	0	36056	
5534	0	34772	
5535	0	33721	
5536	0	31620	
5537	0	30207	
5538	0	29972	
5539	0	29536	
5540	0	30478	
5541	0	32752	
5542	0	33382	
5543	0	32376	
5544	0	31696	
5545	0	30564	
5546	0	30966	
5547	0	31636	
5548	0	31480	
5549	0	30828	
5550	0	30932	
5551	0	30565	
5552	0	29688	
5553	0	30972	
5554	0	32232	
5555	0	32820	
5556	0	34272	
5557	0	34852	
5558	0	33828	
5559	0	34388	
5560	0	34440	
5561	0	35768	
5562	0	34284	
5563	0	34148	
5564	0	35453	
5565	0	36204	
5566	0	36328	
5567	0	36112	
5568	0	34840	
5569	0	33274	
5570	0	33160	
5571	0	31696	
5572	0	31112	
5573	0	32228	
5574	0	32360	
5575	0	32040	
5576	0	31628	
5577	0	31232	
5578	0	30648	
5579	0	30692	
5580	0	29320	
5581	0	28441	
5582	0	29564	
5583	0	30856	
5584	0	31752	
5585	0	32566	
5586	0	33536	
5587	0	34280	
5588	0	34824	
5589	0	35000	
5590	0	33712	
5591	0	31860	
5592	0	32768	
5593	0	32836	
5594	0	31780	
5595	0	32612	
5596	0	32776	
5597	0	33056	
5598	0	33928	
5599	0	32792	
5600	0	30688	
5601	0	31596	
5602	0	32112	
5603	0	31656	
5604	0	32613	
5605	0	32412	
5606	0	32596	
5607	0	33908	
5608	0	34280	
5609	0	34796	
5610	0	34884	
5611	0	34308	
5612	0	33440	
5613	0	34616	
5614	0	36028	
5615	0	36560	
5616	0	35168	
5617	0	33344	
5618	0	30296	
5619	0	30732	
5620	0	31256	
5621	0	31964	
5622	0	30932	
5623	0	27744	
5624	0	28832	
5625	0	30916	
5626	0	32854	
5627	0	33055	
5628	0	32576	
5629	0	32325	
5630	0	32824	
5631	0	34256	
5632	0	36108	
5633	0	37376	
5634	0	37164	
5635	0	36760	
5636	0	36028	
5637	0	35024	
5638	0	34109	
5639	0	35544	
5640	0	35064	
5641	0	32800	
5642	0	31088	
5643	0	29620	
5644	0	26980	
5645	0	26045	
5646	0	27572	
5647	0	28548	
5648	0	27812	
5649	0	27696	
5650	0	27780	
5651	0	29964	
5652	0	32156	
5653	0	33536	
5654	0	34912	
5655	0	35604	
5656	0	36992	
5657	0	38104	
5658	0	38776	
5659	0	38048	
5660	0	37328	
5661	0	36156	
5662	0	34800	
5663	0	34464	
5664	0	34092	
5665	0	32596	
5666	0	31364	
5667	0	28748	
5668	0	27469	
5669	0	28084	
5670	0	28509	
5671	0	29324	
5672	0	30324	
5673	0	31256	
5674	0	32312	
5675	0	33452	
5676	0	33956	
5677	0	33848	
5678	0	33916	
5679	0	34044	
5680	0	31132	
5681	0	27681	
5682	0	29750	
5683	0	32420	
5684	0	34101	
5685	0	34872	
5686	0	35616	
5687	0	35836	
5688	0	35740	
5689	0	34612	
5690	0	35621	
5691	0	36004	
5692	0	35745	
5693	0	35140	
5694	0	35044	
5695	0	35492	
5696	0	34160	
5697	0	33150	
5698	0	34312	
5699	0	32500	
5700	0	30832	
5701	0	30380	
5702	0	29789	
5703	0	29436	
5704	0	30240	
5705	0	28624	
5706	0	26821	
5707	0	25902	
5708	0	24705	
5709	0	25804	
5710	0	28696	
5711	0	31854	
5712	0	35092	
5713	0	38464	
5714	0	40852	
5715	0	41008	
5716	0	39472	
5717	0	39372	
5718	0	38064	
5719	0	36568	
5720	0	35280	
5721	0	34036	
5722	0	33012	
5723	0	32180	
5724	0	31308	
5725	0	28517	
5726	0	27600	
5727	0	28922	
5728	0	29956	
5729	0	30732	
5730	0	31976	
5731	0	33328	
5732	0	34364	
5733	0	34648	
5734	0	35540	
5735	0	34824	
5736	0	34276	
5737	0	33808	
5738	0	32296	
5739	0	30220	
5740	0	29269	
5741	0	29180	
5742	0	29992	
5743	0	31308	
5744	0	31820	
5745	0	32708	
5746	0	34248	
5747	0	34580	
5748	0	34727	
5749	0	34764	
5750	0	35064	
5751	0	34840	
5752	0	33669	
5753	0	32120	
5754	0	31184	
5755	0	31920	
5756	0	29780	
5757	0	28722	
5758	0	29728	
5759	0	31076	
5760	0	31692	
5761	0	32416	
5762	0	33088	
5763	0	33736	
5764	0	32544	
5765	0	32216	
5766	0	33260	
5767	0	35112	
5768	0	35764	
5769	0	36124	
5770	0	35612	
5771	0	35132	
5772	0	34844	
5773	0	33904	
5774	0	33184	
5775	0	30908	
5776	0	30934	
5777	0	31317	
5778	0	32184	
5779	0	32292	
5780	0	32464	
5781	0	32516	
5782	0	32596	
5783	0	32072	
5784	0	30149	
5785	0	31584	
5786	0	29356	
5787	0	25841	
5788	0	29844	
5789	0	33668	
5790	0	36240	
5791	0	37500	
5792	0	37556	
5793	0	37956	
5794	0	36740	
5795	0	35828	
5796	0	35560	
5797	0	35136	
5798	0	33748	
5799	0	32680	
5800	0	31972	
5801	0	30717	
5802	0	29357	
5803	0	26628	
5804	0	28864	
5805	0	31085	
5806	0	32862	
5807	0	33261	
5808	0	33744	
5809	0	33432	
5810	0	33713	
5811	0	33268	
5812	0	31688	
5813	0	30976	
5814	0	31376	
5815	0	32756	
5816	0	33760	
5817	0	34112	
5818	0	34384	
5819	0	34405	
5820	0	34430	
5821	0	34028	
5822	0	33180	
5823	0	33068	
5824	0	32824	
5825	0	31624	
5826	0	30736	
5827	0	31492	
5828	0	32160	
5829	0	32676	
5830	0	33312	
5831	0	34017	
5832	0	34152	
5833	0	33404	
5834	0	32896	
5835	0	32208	
5836	0	31560	
5837	0	31940	
5838	0	32376	
5839	0	32708	
5840	0	33300	
5841	0	32716	
5842	0	32200	
5843	0	29760	
5844	0	29456	
5845	0	30084	
5846	0	29984	
5847	0	31240	
5848	0	31280	
5849	0	32020	
5850	0	33633	
5851	0	34460	
5852	0	35052	
5853	0	36220	
5854	0	37088	
5855	0	35590	
5856	0	34980	
5857	0	35136	
5858	0	35076	
5859	0	34636	
5860	0	33060	
5861	0	31236	
5862	0	29848	
5863	0	29216	
5864	0	27313	
5865	0	28332	
5866	0	30816	
5867	0	32144	
5868	0	32128	
5869	0	31284	
5870	0	33208	
5871	0	34596	
5872	0	35716	
5873	0	35816	
5874	0	35832	
5875	0	36436	
5876	0	37260	
5877	0	37240	
5878	0	36120	
5879	0	35536	
5880	0	33912	
5881	0	33684	
5882	0	32772	
5883	0	31540	
5884	0	30316	
5885	0	29504	
5886	0	29368	
5887	0	29916	
5888	0	30812	
5889	0	31316	
5890	0	31632	
5891	0	32528	
5892	0	32376	
5893	0	32412	
5894	0	33400	
5895	0	34288	
5896	0	33992	
5897	0	33096	
5898	0	31180	
5899	0	30464	
5900	0	29928	
5901	0	30461	
5902	0	31280	
5903	0	32052	
5904	0	32656	
5905	0	33484	
5906	0	34404	
5907	0	35120	
5908	0	34804	
5909	0	33752	
5910	0	33588	
5911	0	33200	
5912	0	30724	
5913	0	30205	
5914	0	29732	
5915	0	29016	
5916	0	30752	
5917	0	32396	
5918	0	33648	
5919	0	34852	
5920	0	33356	
5921	0	33372	
5922	0	33820	
5923	0	33300	
5924	0	33444	
5925	0	34512	
5926	0	35972	
5927	0	35222	
5928	0	35316	
5929	0	35852	
5930	0	35664	
5931	0	34041	
5932	0	33960	
5933	0	33820	
5934	0	33524	
5935	0	31677	
5936	0	31548	
5937	0	30868	
5938	0	29380	
5939	0	29806	
5940	0	29144	
5941	0	29612	
5942	0	30832	
5943	0	32501	
5944	0	34308	
5945	0	34164	
5946	0	34208	
5947	0	33680	
5948	0	32068	
5949	0	30748	
5950	0	29996	
5951	0	30788	
5952	0	32956	
5953	0	34160	
5954	0	35004	
5955	0	35052	
5956	0	34744	
5957	0	34148	
5958	0	33460	
5959	0	32300	
5960	0	31808	
5961	0	32068	
5962	0	29628	
5963	0	28812	
5964	0	29896	
5965	0	32317	
5966	0	34932	
5967	0	37210	
5968	0	37248	
5969	0	36080	
5970	0	35224	
5971	0	34840	
5972	0	34004	
5973	0	33142	
5974	0	33112	
5975	0	33282	
5976	0	33352	
5977	0	32608	
5978	0	32444	
5979	0	33948	
5980	0	34332	
5981	0	32868	
5982	0	31524	
5983	0	31264	
5984	0	31412	
5985	0	31140	
5986	0	30684	
5987	0	30114	
5988	0	28784	
5989	0	28472	
5990	0	29252	
5991	0	29828	
5992	0	30728	
5993	0	32100	
5994	0	33893	
5995	0	35144	
5996	0	35768	
5997	0	34864	
5998	0	32816	
5999	0	31749	
6000	0	31736	
6001	0	31892	
6002	0	32004	
6003	0	33892	
6004	0	35816	
6005	0	35928	
6006	0	34452	
6007	0	34304	
6008	0	34612	
6009	0	33676	
6010	0	32766	
6011	0	33428	
6012	0	34053	
6013	0	33476	
6014	0	33228	
6015	0	32984	
6016	0	33460	
6017	0	32824	
6018	0	31752	
6019	0	31540	
6020	0	31812	
6021	0	32160	
6022	0	33096	
6023	0	33596	
6024	0	31076	
6025	0	32540	
6026	0	32129	
6027	0	32484	
6028	0	32924	
6029	0	31968	
6030	0	31932	
6031	0	31452	
6032	0	29752	
6033	0	29692	
6034	0	30416	
6035	0	32124	
6036	0	33456	
6037	0	34200	
6038	0	33760	
6039	0	34360	
6040	0	34120	
6041	0	35812	
6042	0	36804	
6043	0	36320	
6044	0	36184	
6045	0	35140	
6046	0	32776	
6047	0	31336	
6048	0	29684	
6049	0	29528	
6050	0	29968	
6051	0	30556	
6052	0	29664	
6053	0	30600	
6054	0	31644	
6055	0	32924	
6056	0	34088	
6057	0	34798	
6058	0	35772	
6059	0	36952	
6060	0	36814	
6061	0	35404	
6062	0	33673	
6063	0	32228	
6064	0	31044	
6065	0	30870	
6066	0	29337	
6067	0	30472	
6068	0	31944	
6069	0	32336	
6070	0	32436	
6071	0	32328	
6072	0	32800	
6073	0	33192	
6074	0	33677	
6075	0	34132	
6076	0	34008	
6077	0	32700	
6078	0	30544	
6079	0	31533	
6080	0	32956	
6081	0	33844	
6082	0	33796	
6083	0	33836	
6084	0	32996	
6085	0	31200	
6086	0	30752	
6087	0	29748	
6088	0	29861	
6089	0	30464	
6090	0	32288	
6091	0	33824	
6092	0	35340	
6093	0	35868	
6094	0	35224	
6095	0	34776	
6096	0	34709	
6097	0	34720	
6098	0	35100	
6099	0	35256	
6100	0	33893	
6101	0	31876	
6102	0	30504	
6103	0	29812	
6104	0	29216	
6105	0	29704	
6106	0	30792	
6107	0	32964	
6108	0	33964	
6109	0	33060	
6110	0	31024	
6111	0	29280	
6112	0	26744	
6113	0	29600	
6114	0	33210	
6115	0	36206	
6116	0	37360	
6117	0	37664	
6118	0	37045	
6119	0	35532	
6120	0	34200	
6121	0	34112	
6122	0	34032	
6123	0	33704	
6124	0	34524	
6125	0	35752	
6126	0	36296	
6127	0	34904	
6128	0	33772	
6129	0	32356	
6130	0	33000	
6131	0	32760	
6132	0	32044	
6133	0	31320	
6134	0	30576	
6135	0	30420	
6136	0	30256	
6137	0	30588	
6138	0	31360	
6139	0	31624	
6140	0	31340	
6141	0	30880	
6142	0	30109	
6143	0	31048	
6144	0	31158	
6145	0	31112	
6146	0	31940	
6147	0	33632	
6148	0	33542	
6149	0	33044	
6150	0	31908	
6151	0	32136	
6152	0	32148	
6153	0	31512	
6154	0	31076	
6155	0	30148	
6156	0	30052	
6157	0	31236	
6158	0	32280	
6159	0	33684	
6160	0	35608	
6161	0	36217	
6162	0	36396	
6163	0	35992	
6164	0	33716	
6165	0	30292	
6166	0	30504	
6167	0	31124	
6168	0	32340	
6169	0	33968	
6170	0	34913	
6171	0	36988	
6172	0	38284	
6173	0	37920	
6174	0	35924	
6175	0	35540	
6176	0	34341	
6177	0	32228	
6178	0	32485	
6179	0	33072	
6180	0	32160	
6181	0	31020	
6182	0	30128	
6183	0	30052	
6184	0	30608	
6185	0	30424	
6186	0	30608	
6187	0	30400	
6188	0	30948	
6189	0	32805	
6190	0	31365	
6191	0	31920	
6192	0	32996	
6193	0	32784	
6194	0	32752	
6195	0	32796	
6196	0	32608	
6197	0	32304	
6198	0	32268	
6199	0	32588	
6200	0	33300	
6201	0	32380	
6202	0	32300	
6203	0	33458	
6204	0	34556	
6205	0	34644	
6206	0	34816	
6207	0	36056	
6208	0	36912	
6209	0	36156	
6210	0	34648	
6211	0	33364	
6212	0	32560	
6213	0	31048	
6214	0	28288	
6215	0	27840	
6216	0	29160	
6217	0	30604	
6218	0	32226	
6219	0	33136	
6220	0	33260	
6221	0	33704	
6222	0	33857	
6223	0	33808	
6224	0	33884	
6225	0	34132	
6226	0	34164	
6227	0	34388	
6228	0	34054	
6229	0	33172	
6230	0	32244	
6231	0	31520	
6232	0	31124	
6233	0	30896	
6234	0	30700	
6235	0	30652	
6236	0	30912	
6237	0	31401	
6238	0	29342	
6239	0	26404	
6240	0	28652	
6241	0	31408	
6242	0	33948	
6243	0	35216	
6244	0	36004	
6245	0	37388	
6246	0	37492	
6247	0	36997	
6248	0	36224	
6249	0	35144	
6250	0	34848	
6251	0	35020	
6252	0	34144	
6253	0	30920	
6254	0	28472	
6255	0	26564	
6256	0	27404	
6257	0	30608	
6258	0	32936	
6259	0	36076	
6260	0	37648	
6261	0	36560	
6262	0	34900	
6263	0	33368	
6264	0	31776	
6265	0	31384	
6266	0	31380	
6267	0	32784	
6268	0	34528	
6269	0	34092	
6270	0	32784	
6271	0	32724	
6272	0	32876	
6273	0	32224	
6274	0	32421	
6275	0	32688	
6276	0	32448	
6277	0	31716	
6278	0	31488	
6279	0	31912	
6280	0	32388	
6281	0	33440	
6282	0	34444	
6283	0	34300	
6284	0	33940	
6285	0	33484	
6286	0	32600	
6287	0	31780	
6288	0	31744	
6289	0	31728	
6290	0	31832	
6291	0	32240	
6292	0	31100	
6293	0	29520	
6294	0	28396	
6295	0	28789	
6296	0	29756	
6297	0	31392	
6298	0	33054	
6299	0	34540	
6300	0	35456	
6301	0	36472	
6302	0	36888	
6303	0	36869	
6304	0	36324	
6305	0	35804	
6306	0	35692	
6307	0	35008	
6308	0	33244	
6309	0	31973	
6310	0	31992	
6311	0	31392	
6312	0	31172	
6313	0	31300	
6314	0	31904	
6315	0	32184	
6316	0	32393	
6317	0	32336	
6318	0	32128	
6319	0	31712	
6320	0	31680	
6321	0	31896	
6322	0	31696	
6323	0	30844	
6324	0	31364	
6325	0	31408	
6326	0	31232	
6327	0	32336	
6328	0	33352	
6329	0	33900	
6330	0	33456	
6331	0	33022	
6332	0	32144	
6333	0	32012	
6334	0	31948	
6335	0	32220	
6336	0	32854	
6337	0	33605	
6338	0	32476	
6339	0	32616	
6340	0	33287	
6341	0	31056	
6342	0	31069	
6343	0	32268	
6344	0	32584	
6345	0	33432	
6346	0	34552	
6347	0	36461	
6348	0	34472	
6349	0	33428	
6350	0	34447	
6351	0	33656	
6352	0	32744	
6353	0	34186	
6354	0	35378	
6355	0	35924	
6356	0	35697	
6357	0	35308	
6358	0	34428	
6359	0	34220	
6360	0	33352	
6361	0	32348	
6362	0	32388	
6363	0	32800	
6364	0	32440	
6365	0	31100	
6366	0	31240	
6367	0	30912	
6368	0	30948	
6369	0	30688	
6370	0	32136	
6371	0	32412	
6372	0	32208	
6373	0	32212	
6374	0	31845	
6375	0	31304	
6376	0	30736	
6377	0	30220	
6378	0	30860	
6379	0	31732	
6380	0	32734	
6381	0	33328	
6382	0	34284	
6383	0	34756	
6384	0	34364	
6385	0	33980	
6386	0	33268	
6387	0	32580	
6388	0	32412	
6389	0	32620	
6390	0	32652	
6391	0	32620	
6392	0	32380	
6393	0	32188	
6394	0	32112	
6395	0	30772	
6396	0	30964	
6397	0	31718	
6398	0	31652	
6399	0	31392	
6400	0	31864	
6401	0	33016	
6402	0	33620	
6403	0	33508	
6404	0	34020	
6405	0	34692	
6406	0	34428	
6407	0	34272	
6408	0	33596	
6409	0	33068	
6410	0	32540	
6411	0	31924	
6412	0	29252	
6413	0	29132	
6414	0	31128	
6415	0	32536	
6416	0	32896	
6417	0	33404	
6418	0	34420	
6419	0	35004	
6420	0	34116	
6421	0	31908	
6422	0	31416	
6423	0	31884	
6424	0	33344	
6425	0	34468	
6426	0	36972	
6427	0	38977	
6428	0	40277	
6429	0	38869	
6430	0	36796	
6431	0	34372	
6432	0	32824	
6433	0	30988	
6434	0	30612	
6435	0	30257	
6436	0	29336	
6437	0	29100	
6438	0	29340	
6439	0	30296	
6440	0	29956	
6441	0	30568	
6442	0	31264	
6443	0	31388	
6444	0	30944	
6445	0	31140	
6446	0	32048	
6447	0	32678	
6448	0	31768	
6449	0	31404	
6450	0	32012	
6451	0	32668	
6452	0	34700	
6453	0	36405	
6454	0	37405	
6455	0	37660	
6456	0	36480	
6457	0	35125	
6458	0	34086	
6459	0	33156	
6460	0	32676	
6461	0	32396	
6462	0	32424	
6463	0	32632	
6464	0	32344	
6465	0	31364	
6466	0	30544	
6467	0	30510	
6468	0	30804	
6469	0	30992	
6470	0	30996	
6471	0	31640	
6472	0	31968	
6473	0	32180	
6474	0	32616	
6475	0	32820	
6476	0	33004	
6477	0	32864	
6478	0	32992	
6479	0	33060	
6480	0	33412	
6481	0	32912	
6482	0	32452	
6483	0	32392	
6484	0	32540	
6485	0	32936	
6486	0	33040	
6487	0	32637	
6488	0	32472	
6489	0	32557	
6490	0	32534	
6491	0	32948	
6492	0	33732	
6493	0	33260	
6494	0	30701	
6495	0	29248	
6496	0	30080	
6497	0	30804	
6498	0	31848	
6499	0	33028	
6500	0	33748	
6501	0	34406	
6502	0	34448	
6503	0	34936	
6504	0	34752	
6505	0	35152	
6506	0	35572	
6507	0	35316	
6508	0	35316	
6509	0	35001	
6510	0	34788	
6511	0	34388	
6512	0	33208	
6513	0	32316	
6514	0	29646	
6515	0	29865	
6516	0	30540	
6517	0	31020	
6518	0	32312	
6519	0	32980	
6520	0	33380	
6521	0	33304	
6522	0	33100	
6523	0	33212	
6524	0	32864	
6525	0	32704	
6526	0	32690	
6527	0	33324	
6528	0	33228	
6529	0	33124	
6530	0	33152	
6531	0	32928	
6532	0	32444	
6533	0	32524	
6534	0	32564	
6535	0	32584	
6536	0	32460	
6537	0	32552	
6538	0	32300	
6539	0	32244	
6540	0	32352	
6541	0	32429	
6542	0	32432	
6543	0	32556	
6544	0	32552	
6545	0	32328	
6546	0	32368	
6547	0	32412	
6548	0	32596	
6549	0	32605	
6550	0	32466	
6551	0	32300	
6552	0	32344	
6553	0	32432	
6554	0	32700	
6555	0	32756	
6556	0	32916	
6557	0	33044	
6558	0	33264	
6559	0	33148	
6560	0	32988	
6561	0	33012	
6562	0	33048	
6563	0	32976	
6564	0	32876	
6565	0	32889	
6566	0	32964	
6567	0	32968	
6568	0	32856	
6569	0	32880	
6570	0	32848	
6571	0	32764	
6572	0	32608	
6573	0	32392	
6574	0	31876	
6575	0	30704	
6576	0	30864	
6577	0	31244	
6578	0	31700	
6579	0	32161	
6580	0	32700	
6581	0	33033	
6582	0	33368	
6583	0	33636	
6584	0	33720	
6585	0	34184	
6586	0	34880	
6587	0	34732	
6588	0	32406	
6589	0	31640	
6590	0	31712	
6591	0	32524	
6592	0	33276	
6593	0	33464	
6594	0	33460	
6595	0	34028	
6596	0	34296	
6597	0	34496	
6598	0	34904	
6599	0	35064	
6600	0	34240	
6601	0	33508	
6602	0	33226	
6603	0	33233	
6604	0	33108	
6605	0	34356	
6606	0	33345	
6607	0	32180	
6608	0	31132	
6609	0	30196	
6610	0	29522	
6611	0	28860	
6612	0	29348	
6613	0	29944	
6614	0	30252	
6615	0	30996	
6616	0	32056	
6617	0	33076	
6618	0	33952	
6619	0	34264	
6620	0	34452	
6621	0	34424	
6622	0	34224	
6623	0	34032	
6624	0	33960	
6625	0	33872	
6626	0	33628	
6627	0	33093	
6628	0	32908	
6629	0	32644	
6630	0	32597	
6631	0	32670	
6632	0	32441	
6633	0	32230	
6634	0	32316	
6635	0	32380	
6636	0	32421	
6637	0	32488	
6638	0	32561	
6639	0	32644	
6640	0	32668	
6641	0	32748	
6642	0	32780	
6643	0	32784	
6644	0	32768	
6645	0	32740	
6646	0	32756	
6647	0	32776	
6648	0	32836	
6649	0	32804	
6650	0	32860	
6651	0	32752	
6652	0	32704	
6653	0	32724	
6654	0	32832	
6655	0	32768	
6656	0	32708	
6657	0	32740	
6658	0	32820	
6659	0	32936	
6660	0	32896	
6661	0	32928	
6662	0	32908	
6663	0	32848	
6664	0	32850	
6665	0	32864	
6666	0	32892	
6667	0	32873	
6668	0	32820	
6669	0	32800	
6670	0	32718	
6671	0	32712	
6672	0	32664	
6673	0	32664	
6674	0	32724	
6675	0	32740	
6676	0	32772	
6677	0	32748	
6678	0	32940	
6679	0	33216	
6680	0	33148	
6681	0	33134	
6682	0	33065	
6683	0	32989	
6684	0	32928	
6685	0	32832	
6686	0	32852	
6687	0	32797	
6688	0	32736	
6689	0	32686	
6690	0	32832	
6691	0	32664	
6692	0	32604	
6693	0	32620	
6694	0	32608	
6695	0	32580	
6696	0	32600	
6697	0	32828	
6698	0	32740	
6699	0	32780	
6700	0	32736	
6701	0	32760	
6702	0	32717	
6703	0	32736	
6704	0	32768	
6705	0	32759	
6706	0	32756	
6707	0	32760	
6708	0	32730	
6709	0	32709	
6710	0	32708	
6711	0	32736	
6712	0	32648	
6713	0	32720	
6714	0	32704	
6715	0	32616	
6716	0	32668	
6717	0	32704	
6718	0	32636	
6719	0	32652	
6720	0	32692	
6721	0	32748	
6722	0	32780	
6723	0	32784	
6724	0	32800	
6725	0	32864	
6726	0	32856	
6727	0	32820	
6728	0	32756	
6729	0	32828	
6730	0	32836	
6731	0	32724	
6732	0	32737	
6733	0	32768	
6734	0	32768	
6735	0	32724	
6736	0	32732	
6737	0	32808	
6738	0	32880	
6739	0	32808	
6740	0	32848	
6741	0	32864	
6742	0	32876	
6743	0	32868	
6744	0	32780	
6745	0	32808	
6746	0	32744	
6747	0	32780	
6748	0	32716	
6749	0	32780	
6750	0	32781	
6751	0	32728	
6752	0	32652	
6753	0	32740	
6754	0	32796	
6755	0	32668	
6756	0	32717	
6757	0	32774	
6758	0	32820	
6759	0	32848	
6760	0	32792	
6761	0	32860	
6762	0	32912	
6763	0	32828	
6764	0	32790	
6765	0	32880	
6766	0	32824	
6767	0	32796	
6768	0	32824	
6769	0	32928	
6770	0	32804	
6771	0	32748	
6772	0	32720	
6773	0	32676	
6774	0	32728	
6775	0	32668	
6776	0	32661	
6777	0	32620	
6778	0	32732	
6779	0	32876	
6780	0	32812	
6781	0	32876	
6782	0	32824	
6783	0	32836	
6784	0	32841	
6785	0	32758	
6786	0	32744	
6787	0	32784	
6788	0	32804	
6789	0	32800	
6790	0	32776	
6791	0	32736	
6792	0	32729	
6793	0	32700	
6794	0	32756	
6795	0	32720	
6796	0	32756	
6797	0	32720	
6798	0	32704	
6799	0	32839	
6800	0	32820	
6801	0	33032	
6802	0	33044	
6803	0	33080	
6804	0	33056	
6805	0	32981	
6806	0	32896	
6807	0	32752	
6808	0	32631	
6809	0	32640	
6810	0	32556	
6811	0	32540	
6812	0	32636	
6813	0	32692	
6814	0	32828	
6815	0	32869	
6816	0	32738	
6817	0	32769	
6818	0	32860	
6819	0	32788	
6820	0	32792	
6821	0	32768	
6822	0	32688	
6823	0	32576	
6824	0	32608	
6825	0	32800	
6826	0	32900	
6827	0	32924	
6828	0	32996	
6829	0	32946	
6830	0	32872	
6831	0	32764	
6832	0	32800	
6833	0	32808	
6834	0	32836	
6835	0	32760	
6836	0	32780	
6837	0	32824	
6838	0	32856	
6839	0	32828	
6840	0	32844	
6841	0	32932	
6842	0	32880	
6843	0	32908	
6844	0	32856	
6845	0	32864	
6846	0	32776	
6847	0	32696	
6848	0	32653	
6849	0	32684	
6850	0	32640	
6851	0	32652	
6852	0	32668	
6853	0	32672	
6854	0	32720	
6855	0	32704	
6856	0	32700	
6857	0	32728	
6858	0	32778	
6859	0	32880	
6860	0	32824	
6861	0	32844	
6862	0	32856	
6863	0	32816	
6864	0	32824	
6865	0	32800	
6866	0	32760	
6867	0	32788	
6868	0	32784	
6869	0	32788	
6870	0	32765	
6871	0	32676	
6872	0	32460	
6873	0	32304	
6874	0	32224	
6875	0	32288	
6876	0	32376	
6877	0	32488	
6878	0	32616	
6879	0	32704	
6880	0	32744	
6881	0	32824	
6882	0	32852	
6883	0	32854	
6884	0	32872	
6885	0	32924	
6886	0	32886	
6887	0	32865	
6888	0	32472	
6889	0	32364	
6890	0	32436	
6891	0	32432	
6892	0	32556	
6893	0	32688	
6894	0	32724	
6895	0	32676	
6896	0	32804	
6897	0	32824	
6898	0	32912	
6899	0	32944	
6900	0	32969	
6901	0	32992	
6902	0	33066	
6903	0	33045	
6904	0	33020	
6905	0	32977	
6906	0	32956	
6907	0	32900	
6908	0	32960	
6909	0	32980	
6910	0	33020	
6911	0	32944	
6912	0	32828	
6913	0	32816	
6914	0	32888	
6915	0	32796	
6916	0	32685	
6917	0	32740	
6918	0	32776	
6919	0	32736	
6920	0	32804	
6921	0	32920	
6922	0	32852	
6923	0	32828	
6924	0	32916	
6925	0	32864	
6926	0	32788	
6927	0	32896	
6928	0	32852	
6929	0	32848	
6930	0	32768	
6931	0	32612	
6932	0	32609	
6933	0	32588	
6934	0	32492	
6935	0	32552	
6936	0	32616	
6937	0	32720	
6938	0	32824	
6939	0	32920	
6940	0	32828	
6941	0	32832	
6942	0	32764	
6943	0	32750	
6944	0	32764	
6945	0	32864	
6946	0	32885	
6947	0	32856	
6948	0	32788	
6949	0	32872	
6950	0	32877	
6951	0	32812	
6952	0	32676	
6953	0	32760	
6954	0	32769	
6955	0	32784	
6956	0	32748	
6957	0	32809	
6958	0	32802	
6959	0	32876	
6960	0	32845	
6961	0	32888	
6962	0	32840	
6963	0	32848	
6964	0	32884	
6965	0	32838	
6966	0	32804	
6967	0	32744	
6968	0	32888	
6969	0	32840	
6970	0	32696	
6971	0	32644	
6972	0	32572	
6973	0	32621	
6974	0	32663	
6975	0	32640	
6976	0	32680	
6977	0	32696	
6978	0	32741	
6979	0	32732	
6980	0	32780	
6981	0	32900	
6982	0	32992	
6983	0	32917	
6984	0	32876	
6985	0	32976	
6986	0	32980	
6987	0	32885	
6988	0	32888	
6989	0	32932	
6990	0	32900	
6991	0	32616	
6992	0	32652	
6993	0	32581	
6994	0	32612	
6995	0	32556	
6996	0	32636	
6997	0	32680	
6998	0	32724	
6999	0	32704	
7000	0	32756	
7001	0	32708	
7002	0	32260	
7003	0	32200	
7004	0	32236	
7005	0	32258	
7006	0	32364	
7007	0	32437	
7008	0	32508	
7009	0	32604	
7010	0	32640	
7011	0	32688	
7012	0	32708	
7013	0	32564	
7014	0	32421	
7015	0	32398	
7016	0	32532	
7017	0	32648	
7018	0	32844	
7019	0	32992	
7020	0	33032	
7021	0	33012	
7022	0	33088	
7023	0	33024	
7024	0	33004	
7025	0	33006	
7026	0	33092	
7027	0	33020	
7028	0	33004	
7029	0	32992	
7030	0	32885	
7031	0	32888	
7032	0	32845	
7033	0	32852	
7034	0	32864	
7035	0	32792	
7036	0	32804	
7037	0	32792	
7038	0	32768	
7039	0	32860	
7040	0	32928	
7041	0	32937	
7042	0	32888	
7043	0	32860	
7044	0	32884	
7045	0	32924	
7046	0	32888	
7047	0	32888	
7048	0	32813	
7049	0	32841	
7050	0	32868	
7051	0	32824	
7052	0	32756	
7053	0	32780	
7054	0	32808	
7055	0	32752	
7056	0	32800	
7057	0	32776	
7058	0	32857	
7059	0	32860	
7060	0	32900	
7061	0	32884	
7062	0	32912	
7063	0	32932	
7064	0	32980	
7065	0	32928	
7066	0	32848	
7067	0	32865	
7068	0	32816	
7069	0	32865	
7070	0	32861	
7071	0	32736	
7072	0	32672	
7073	0	32700	
7074	0	32756	
7075	0	32716	
7076	0	32740	
7077	0	32784	
7078	0	32808	
7079	0	32872	
7080	0	32788	
7081	0	32822	
7082	0	32748	
7083	0	32756	
7084	0	32716	
7085	0	32696	
7086	0	32732	
7087	0	32756	
7088	0	32752	
7089	0	32760	
7090	0	32784	
7091	0	32728	
7092	0	32612	
7093	0	32580	
7094	0	32652	
7095	0	32684	
7096	0	32748	
7097	0	32692	
7098	0	32696	
7099	0	32712	
7100	0	32672	
7101	0	32676	
7102	0	32680	
7103	0	32768	
7104	0	32732	
7105	0	32792	
7106	0	32825	
7107	0	32772	
7108	0	32752	
7109	0	32788	
7110	0	32794	
7111	0	32760	
7112	0	32765	
7113	0	32749	
7114	0	32801	
7115	0	32812	
7116	0	32749	
7117	0	32784	
7118	0	32820	
7119	0	32836	
7120	0	32893	
7121	0	32890	
7122	0	32912	
7123	0	32832	
7124	0	32868	
7125	0	32948	
7126	0	32880	
7127	0	32924	
7128	0	32840	
7129	0	32848	
7130	0	32836	
7131	0	32868	
7132	0	32804	
7133	0	32776	
7134	0	32824	
7135	0	32766	
7136	0	32816	
7137	0	32776	
7138	0	32788	
7139	0	32876	
7140	0	32917	
7141	0	32872	
7142	0	32828	
7143	0	32784	
7144	0	32776	
7145	0	32801	
7146	0	32740	
7147	0	32804	
7148	0	32768	
7149	0	32812	
7150	0	32748	
7151	0	32736	
7152	0	32728	
7153	0	32736	
7154	0	32684	
7155	0	32717	
7156	0	32740	
7157	0	32788	
7158	0	32784	
7159	0	32808	
7160	0	32876	
7161	0	32816	
7162	0	32892	
7163	0	32832	
7164	0	32816	
7165	0	32800	
7166	0	32764	
7167	0	32837	
7168	0	32814	
7169	0	32769	
7170	0	32816	
7171	0	32660	
7172	0	32654	
7173	0	32752	
7174	0	32756	
7175	0	32704	
7176	0	32645	
7177	0	32736	
7178	0	32796	
7179	0	32844	
7180	0	32888	
7181	0	32932	
7182	0	32880	
7183	0	32868	
7184	0	32796	
7185	0	32748	
7186	0	32808	
7187	0	32812	
7188	0	32760	
7189	0	32748	
7190	0	32753	
7191	0	32708	
7192	0	32736	
7193	0	32724	
7194	0	32724	
7195	0	32692	
7196	0	32677	
7197	0	32733	
7198	0	32824	
7199	0	32816	
7200	0	32812	
7201	0	32784	
7202	0	32812	
7203	0	32804	
7204	0	32832	
7205	0	32786	
7206	0	32864	
7207	0	32888	
7208	0	32744	
7209	0	32760	
7210	0	32776	
7211	0	32744	
7212	0	32756	
7213	0	32802	
7214	0	32744	
7215	0	32692	
7216	0	32708	
7217	0	32688	
7218	0	32764	
7219	0	32804	
7220	0	32720	
7221	0	32760	
7222	0	32826	
7223	0	32836	
7224	0	32764	
7225	0	32804	
7226	0	32780	
7227	0	32776	
7228	0	32808	
7229	0	32845	
7230	0	32777	
7231	0	32724	
7232	0	32624	
7233	0	32660	
7234	0	32692	
7235	0	32676	
7236	0	32708	
7237	0	32748	
7238	0	32792	
7239	0	32852	
7240	0	32828	
7241	0	32910	
7242	0	32873	
7243	0	32848	
7244	0	32840	
7245	0	32885	
7246	0	32816	
7247	0	32896	
7248	0	32826	
7249	0	32836	
7250	0	32736	
7251	0	32736	
7252	0	32716	
7253	0	32724	
7254	0	32708	
7255	0	32760	
7256	0	32752	
7257	0	32740	
7258	0	32836	
7259	0	32984	
7260	0	33012	
7261	0	32884	
7262	0	32844	
7263	0	32804	
7264	0	32788	
7265	0	32816	
7266	0	32792	
7267	0	32845	
7268	0	32780	
7269	0	32820	
7270	0	32800	
7271	0	32752	
7272	0	32688	
7273	0	32648	
7274	0	32716	
7275	0	32716	
7276	0	32600	
7277	0	32712	
7278	0	32708	
7279	0	32820	
7280	0	32848	
7281	0	32848	
7282	0	32820	
7283	0	32768	
7284	0	32894	
7285	0	32844	
7286	0	32816	
7287	0	32772	
7288	0	32868	
7289	0	32844	
7290	0	32836	
7291	0	32744	
7292	0	32696	
7293	0	32740	
7294	0	32744	
7295	0	32720	
7296	0	32784	
7297	0	32756	
7298	0	32772	
7299	0	32736	
7300	0	32788	
7301	0	32800	
7302	0	32816	
7303	0	32784	
7304	0	32780	
7305	0	32780	
7306	0	32760	
7307	0	32820	
7308	0	32840	
7309	0	32876	
7310	0	32821	
7311	0	32772	
7312	0	32700	
7313	0	32808	
7314	0	32696	
7315	0	32704	
7316	0	32669	
7317	0	32664	
7318	0	32712	
7319	0	32868	
7320	0	32838	
7321	0	32836	
7322	0	32868	
7323	0	32836	
7324	0	32844	
7325	0	32812	
7326	0	32800	
7327	0	32744	
7328	0	32760	
7329	0	32816	
7330	0	32804	
7331	0	32637	
7332	0	32677	
7333	0	32740	
7334	0	32704	
7335	0	32720	
7336	0	32700	
7337	0	32748	
7338	0	33028	
7339	0	33148	
7340	0	33100	
7341	0	33116	
7342	0	33036	
7343	0	32888	
7344	0	32888	
7345	0	32832	
7346	0	32836	
7347	0	32768	
7348	0	32700	
7349	0	32728	
7350	0	32744	
7351	0	32668	
7352	0	32568	
7353	0	32653	
7354	0	32592	
7355	0	32608	
7356	0	32604	
7357	0	32696	
7358	0	32744	
7359	0	32792	
7360	0	32780	
7361	0	32780	
7362	0	32724	
7363	0	32753	
7364	0	32708	
7365	0	32756	
7366	0	32800	
7367	0	32732	
7368	0	32778	
7369	0	32800	
7370	0	32816	
7371	0	32652	
7372	0	32672	
7373	0	32644	
7374	0	32661	
7375	0	32700	
7376	0	32700	
7377	0	32748	
7378	0	32740	
7379	0	32829	
7380	0	32844	
7381	0	32828	
7382	0	32832	
7383	0	32820	
7384	0	32744	
7385	0	32796	
7386	0	32816	
7387	0	32784	
7388	0	32797	
7389	0	32900	
7390	0	32760	
7391	0	32782	
7392	0	32744	
7393	0	32700	
7394	0	32708	
7395	0	32664	
7396	0	32724	
7397	0	32704	
7398	0	32833	
7399	0	32956	
7400	0	32864	
7401	0	32853	
7402	0	32820	
7403	0	32744	
7404	0	32668	
7405	0	32680	
7406	0	32652	
7407	0	32800	
7408	0	32856	
7409	0	32892	
7410	0	32808	
7411	0	32768	
7412	0	32773	
7413	0	32692	
7414	0	32736	
7415	0	32788	
7416	0	32708	
7417	0	32770	
7418	0	32808	
7419	0	32864	
7420	0	32852	
7421	0	32728	
7422	0	32796	
7423	0	32798	
7424	0	32736	
7425	0	32753	
7426	0	32816	
7427	0	32834	
7428	0	32837	
7429	0	32832	
7430	0	32776	
7431	0	32836	
7432	0	32732	
7433	0	32708	
7434	0	32768	
7435	0	32672	
7436	0	32696	
7437	0	32713	
7438	0	32718	
7439	0	32784	
7440	0	32801	
7441	0	32806	
7442	0	32768	
7443	0	32796	
7444	0	32780	
7445	0	32798	
7446	0	32793	
7447	0	32801	
7448	0	32800	
7449	0	32833	
7450	0	32816	
7451	0	32728	
7452	0	32740	
7453	0	32740	
7454	0	32764	
7455	0	32652	
7456	0	32752	
7457	0	32744	
7458	0	32770	
7459	0	32880	
7460	0	32832	
7461	0	32868	
7462	0	32840	
7463	0	32856	
7464	0	32832	
7465	0	32800	
7466	0	32788	
7467	0	32800	
7468	0	32784	
7469	0	32748	
7470	0	32740	
7471	0	32756	
7472	0	32684	
7473	0	32736	
7474	0	32764	
7475	0	32744	
7476	0	32788	
7477	0	32708	
7478	0	32728	
7479	0	32792	
7480	0	32868	
7481	0	32885	
7482	0	32864	
7483	0	32740	
7484	0	32828	
7485	0	32788	
7486	0	32804	
7487	0	32768	
7488	0	32772	
7489	0	32840	
7490	0	32805	
7491	0	32764	
7492	0	32709	
7493	0	32668	
7494	0	32776	
7495	0	32728	
7496	0	32724	
7497	0	32720	
7498	0	32748	
7499	0	32820	
7500	0	32836	
7501	0	32844	
7502	0	32812	
7503	0	32764	
7504	0	32776	
7505	0	32800	
7506	0	32896	
7507	0	32856	
7508	0	32833	
7509	0	32808	
7510	0	32798	
7511	0	32868	
7512	0	32778	
7513	0	32792	
7514	0	32761	
7515	0	32744	
7516	0	32673	
7517	0	32704	
7518	0	32744	
7519	0	32764	
7520	0	32828	
7521	0	32900	
7522	0	32828	
7523	0	32750	
7524	0	32800	
7525	0	32832	
7526	0	32852	
7527	0	32804	
7528	0	32852	
7529	0	32860	
7530	0	32844	
7531	0	32760	
7532	0	32676	
7533	0	32736	
7534	0	32688	
7535	0	32712	
7536	0	32704	
7537	0	32732	
7538	0	32768	
7539	0	32824	
7540	0	32788	
7541	0	32812	
7542	0	32768	
7543	0	32844	
7544	0	32816	
7545	0	32788	
7546	0	32860	
7547	0	32788	
7548	0	32824	
7549	0	32820	
7550	0	32820	
7551	0	32772	
7552	0	32752	
7553	0	32744	
7554	0	32744	
7555	0	32702	
7556	0	32686	
7557	0	32668	
7558	0	32756	
7559	0	32800	
7560	0	32768	
7561	0	32728	
7562	0	32830	
7563	0	32800	
7564	0	32841	
7565	0	32740	
7566	0	32812	
7567	0	32836	
7568	0	32768	
7569	0	32848	
7570	0	32752	
7571	0	32700	
7572	0	32736	
7573	0	32768	
7574	0	32693	
7575	0	32677	
7576	0	32640	
7577	0	32696	
7578	0	32776	
7579	0	32820	
7580	0	32800	
7581	0	32857	
7582	0	32772	
7583	0	32844	
7584	0	32868	
7585	0	32892	
7586	0	32908	
7587	0	32880	
7588	0	32820	
7589	0	32784	
7590	0	32804	
7591	0	32752	
7592	0	32652	
7593	0	32709	
7594	0	32720	
7595	0	32704	
7596	0	32740	
7597	0	32760	
7598	0	32768	
7599	0	32772	
7600	0	32824	
7601	0	32800	
7602	0	32748	
7603	0	32788	
7604	0	32805	
7605	0	32808	
7606	0	32796	
7607	0	32764	
7608	0	32744	
7609	0	32748	
7610	0	32812	
7611	0	32804	
7612	0	32704	
7613	0	32708	
7614	0	32724	
7615	0	32744	
7616	0	32724	
7617	0	32680	
7618	0	32824	
7619	0	32791	
7620	0	32840	
7621	0	32836	
7622	0	32812	
7623	0	32840	
7624	0	32742	
7625	0	32824	
7626	0	32844	
7627	0	32860	
7628	0	32849	
7629	0	32804	
7630	0	32768	
7631	0	32764	
7632	0	32716	
7633	0	32726	
7634	0	32728	
7635	0	32780	
7636	0	32720	
7637	0	32688	
7638	0	32736	
7639	0	32804	
7640	0	32856	
7641	0	32816	
7642	0	32841	
7643	0	32825	
7644	0	32820	
7645	0	32800	
7646	0	32832	
7647	0	32812	
7648	0	32692	
7649	0	32726	
7650	0	32836	
7651	0	32744	
7652	0	32676	
7653	0	32768	
7654	0	32790	
7655	0	32744	
7656	0	32696	
7657	0	32724	
7658	0	32796	
7659	0	32792	
7660	0	32776	
7661	0	32824	
7662	0	32920	
7663	0	32852	
7664	0	32820	
7665	0	32760	
7666	0	32876	
7667	0	32864	
7668	0	32852	
7669	0	32800	
7670	0	32836	
7671	0	32684	
7672	0	32700	
7673	0	32793	
7674	0	32760	
7675	0	32713	
7676	0	32709	
7677	0	32704	
7678	0	32781	
7679	0	32792	
7680	0	32800	
7681	0	32820	
7682	0	32816	
7683	0	32780	
7684	0	32832	
7685	0	32768	
7686	0	32804	
7687	0	32816	
7688	0	32837	
7689	0	32784	
7690	0	32800	
7691	0	32724	
7692	0	32752	
7693	0	32720	
7694	0	32776	
7695	0	32652	
7696	0	32772	
7697	0	32708	
7698	0	32736	
7699	0	32748	
7700	0	32791	
7701	0	32792	
7702	0	32856	
7703	0	32816	
7704	0	32761	
7705	0	32864	
7706	0	32784	
7707	0	32848	
7708	0	32812	
7709	0	32785	
7710	0	32749	
7711	0	32748	
7712	0	32733	
7713	0	32740	
7714	0	32740	
7715	0	32698	
7716	0	32685	
7717	0	32720	
7718	0	32730	
7719	0	32788	
7720	0	32812	
7721	0	32748	
7722	0	32816	
7723	0	32728	
7724	0	32812	
7725	0	32808	
7726	0	32832	
7727	0	32873	
7728	0	32860	
7729	0	32844	
7730	0	32812	
7731	0	32700	
7732	0	32700	
7733	0	32768	
7734	0	32744	
7735	0	32704	
7736	0	32721	
7737	0	32656	
7738	0	32584	
7739	0	32556	
7740	0	32616	
7741	0	32708	
7742	0	32708	
7743	0	32724	
7744	0	32752	
7745	0	32748	
7746	0	32768	
7747	0	32812	
7748	0	32789	
7749	0	32832	
7750	0	32908	
7751	0	32844	
7752	0	32772	
7753	0	32769	
7754	0	32704	
7755	0	32792	
7756	0	32709	
7757	0	32784	
7758	0	32793	
7759	0	32848	
7760	0	32828	
7761	0	32832	
7762	0	32880	
7763	0	32820	
7764	0	32852	
7765	0	32838	
7766	0	32908	
7767	0	32952	
7768	0	32848	
7769	0	32832	
7770	0	32776	
7771	0	32684	
7772	0	32710	
7773	0	32736	
7774	0	32724	
7775	0	32788	
7776	0	32788	
7777	0	32736	
7778	0	32800	
7779	0	32844	
7780	0	32856	
7781	0	32908	
7782	0	32926	
7783	0	32892	
7784	0	32812	
7785	0	32870	
7786	0	32868	
7787	0	32788	
7788	0	32736	
7789	0	32792	
7790	0	32836	
7791	0	32708	
7792	0	32696	
7793	0	32672	
7794	0	32788	
7795	0	32720	
7796	0	32686	
7797	0	32733	
7798	0	32772	
7799	0	32764	
7800	0	32788	
7801	0	32792	
7802	0	32756	
7803	0	32720	
7804	0	32724	
7805	0	32724	
7806	0	32728	
7807	0	32728	
7808	0	32736	
7809	0	32708	
7810	0	32776	
7811	0	32756	
7812	0	32956	
7813	0	32968	
7814	0	32936	
7815	0	32848	
7816	0	32844	
7817	0	32764	
7818	0	32792	
7819	0	32884	
7820	0	32864	
7821	0	32814	
7822	0	32844	
7823	0	32856	
7824	0	32828	
7825	0	32744	
7826	0	32812	
7827	0	32693	
7828	0	32784	
7829	0	32780	
7830	0	32836	
7831	0	32772	
7832	0	32688	
7833	0	32724	
7834	0	32684	
7835	0	32704	
7836	0	32692	
7837	0	32712	
7838	0	32768	
7839	0	32826	
7840	0	32812	
7841	0	32796	
7842	0	32832	
7843	0	32796	
7844	0	32776	
7845	0	32716	
7846	0	32816	
7847	0	32800	
7848	0	32788	
7849	0	32820	
7850	0	32800	
7851	0	32780	
7852	0	32772	
7853	0	32648	
7854	0	32644	
7855	0	32650	
7856	0	32640	
7857	0	32648	
7858	0	32700	
7859	0	32740	
7860	0	32814	
7861	0	32766	
7862	0	32788	
7863	0	32740	
7864	0	32792	
7865	0	32808	
7866	0	32852	
7867	0	32760	
7868	0	32788	
7869	0	32740	
7870	0	32736	
7871	0	32676	
7872	0	32668	
7873	0	32560	
7874	0	32696	
7875	0	32694	
7876	0	32605	
7877	0	32748	
7878	0	32768	
7879	0	32848	
7880	0	32892	
7881	0	32937	
7882	0	32940	
7883	0	32884	
7884	0	32832	
7885	0	32812	
7886	0	32796	
7887	0	32820	
7888	0	32900	
7889	0	32868	
7890	0	32800	
7891	0	32792	
7892	0	32756	
7893	0	32864	
7894	0	32756	
7895	0	32812	
7896	0	32756	
7897	0	32672	
7898	0	32817	
7899	0	32824	
7900	0	32836	
7901	0	32814	
7902	0	32853	
7903	0	32848	
7904	0	32877	
7905	0	32832	
7906	0	32804	
7907	0	32832	
7908	0	32792	
7909	0	32868	
7910	0	32832	
7911	0	32764	
7912	0	32740	
7913	0	32800	
7914	0	32692	
7915	0	32756	
7916	0	32640	
7917	0	32664	
7918	0	32748	
7919	0	32756	
7920	0	32816	
7921	0	32836	
7922	0	32852	
7923	0	32813	
7924	0	32836	
7925	0	32840	
7926	0	32788	
7927	0	32884	
7928	0	32868	
7929	0	32782	
7930	0	32796	
7931	0	32784	
7932	0	32668	
7933	0	32620	
7934	0	32720	
7935	0	32713	
7936	0	32694	
7937	0	32732	
7938	0	32756	
7939	0	32789	
7940	0	32848	
7941	0	32876	
7942	0	32880	
7943	0	32788	
7944	0	32784	
7945	0	32828	
7946	0	32842	
7947	0	32860	
7948	0	32772	
7949	0	32828	
7950	0	32796	
7951	0	32756	
7952	0	32764	
7953	0	32772	
7954	0	32784	
7955	0	32804	
7956	0	32732	
7957	0	32684	
7958	0	32770	
7959	0	32788	
7960	0	32780	
7961	0	32828	
7962	0	32788	
7963	0	32750	
7964	0	32756	
7965	0	32720	
7966	0	32816	
7967	0	32828	
7968	0	32820	
7969	0	32834	
7970	0	32840	
7971	0	32879	
7972	0	32759	
7973	0	32740	
7974	0	32704	
7975	0	32664	
7976	0	32712	
7977	0	32768	
7978	0	32780	
7979	0	32724	
7980	0	32860	
7981	0	32924	
7982	0	32824	
7983	0	32788	
7984	0	32800	
7985	0	32768	
7986	0	32820	
7987	0	32792	
7988	0	32820	
7989	0	32864	
7990	0	32788	
7991	0	32772	
7992	0	32775	
7993	0	32768	
7994	0	32708	
7995	0	32719	
7996	0	32692	
7997	0	32744	
7998	0	32784	
7999	0	32836	
8000	0	32828	
8001	0	32844	
8002	0	32804	
8003	0	32848	
8004	0	32836	
8005	0	32846	
8006	0	32804	
8007	0	32804	
8008	0	32820	
8009	0	32800	
8010	0	32860	
8011	0	32696	
8012	0	32712	
8013	0	32781	
8014	0	32772	
8015	0	32717	
8016	0	32741	
8017	0	32762	
8018	0	32812	
8019	0	32752	
8020	0	32853	
8021	0	32880	
8022	0	32860	
8023	0	32832	
8024	0	32824	
8025	0	32848	
8026	0	32689	
8027	0	32804	
8028	0	32812	
8029	0	32804	
8030	0	32900	
8031	0	32832	
8032	0	32688	
8033	0	32654	
8034	0	32708	
8035	0	32748	
8036	0	32740	
8037	0	32720	
8038	0	32708	
8039	0	32805	
8040	0	32860	
8041	0	32792	
8042	0	32832	
8043	0	32832	
8044	0	32732	
8045	0	32812	
8046	0	32832	
8047	0	32788	
8048	0	32732	
8049	0	32792	
8050	0	32808	
8051	0	32816	
8052	0	32769	
8053	0	32712	
8054	0	32756	
8055	0	32680	
8056	0	32705	
8057	0	32712	
8058	0	32784	
8059	0	32772	
8060	0	32856	
8061	0	32848	
8062	0	32824	
8063	0	32788	
8064	0	32768	
8065	0	32744	
8066	0	32752	
8067	0	32768	
8068	0	32764	
8069	0	32800	
8070	0	32792	
8071	0	32776	
8072	0	32780	
8073	0	32724	
8074	0	32792	
8075	0	32732	
8076	0	32740	
8077	0	32752	
8078	0	32774	
8079	0	32804	
8080	0	32892	
8081	0	32840	
8082	0	32732	
8083	0	32748	
8084	0	32720	
8085	0	32676	
8086	0	32656	
8087	0	32753	
8088	0	32728	
8089	0	32736	
8090	0	32716	
8091	0	32708	
8092	0	32700	
8093	0	32702	
8094	0	32692	
8095	0	32628	
8096	0	32644	
8097	0	32644	
8098	0	32652	
8099	0	32728	
8100	0	32848	
8101	0	32912	
8102	0	33002	
8103	0	33012	
8104	0	32964	
8105	0	32976	
8106	0	32941	
8107	0	32868	
8108	0	32908	
8109	0	32932	
8110	0	32844	
8111	0	32848	
8112	0	32780	
8113	0	32724	
8114	0	32672	
8115	0	32766	
8116	0	32656	
8117	0	32696	
8118	0	32744	
8119	0	32744	
8120	0	32800	
8121	0	32820	
8122	0	32828	
8123	0	32836	
8124	0	32780	
8125	0	32820	
8126	0	32848	
8127	0	32728	
8128	0	32792	
8129	0	32868	
8130	0	32832	
8131	0	32692	
8132	0	32676	
8133	0	32800	
8134	0	32744	
8135	0	32536	
8136	0	32160	
8137	0	31976	
8138	0	32117	
8139	0	32272	
8140	0	32412	
8141	0	32520	
8142	0	32708	
8143	0	32672	
8144	0	32788	
8145	0	32832	
8146	0	32876	
8147	0	32940	
8148	0	33038	
8149	0	33012	
8150	0	32984	
8151	0	32960	
8152	0	32930	
8153	0	32933	
8154	0	32856	
8155	0	32904	
8156	0	32828	
8157	0	32848	
8158	0	32860	
8159	0	32876	
8160	0	32944	
8161	0	32892	
8162	0	32840	
8163	0	32917	
8164	0	32928	
8165	0	32936	
8166	0	32928	
8167	0	32856	
8168	0	32824	
8169	0	32853	
8170	0	32836	
8171	0	32768	
8172	0	32756	
8173	0	32725	
8174	0	32748	
8175	0	32748	
8176	0	32712	
8177	0	32728	
8178	0	32736	
8179	0	32806	
8180	0	32796	
8181	0	32868	
8182	0	32900	
8183	0	32841	
8184	0	32828	
8185	0	32796	
8186	0	32820	
8187	0	32900	
8188	0	32836	
8189	0	32852	
8190	0	32871	
8191	0	32752	
8192	0	32788	
8193	0	32692	
8194	0	32764	
8195	0	32718	
8196	0	32704	
8197	0	32716	
8198	0	32756	
8199	0	32752	
8200	0	32901	
8201	0	32880	
8202	0	32860	
8203	0	32829	
8204	0	32792	
8205	0	32796	
8206	0	32788	
8207	0	32820	
8208	0	32808	
8209	0	32804	
8210	0	32724	
8211	0	32644	
8212	0	32720	
8213	0	32700	
8214	0	32748	
8215	0	32764	
8216	0	32752	
8217	0	32760	
8218	0	32768	
8219	0	32828	
8220	0	32836	
8221	0	32878	
8222	0	32804	
8223	0	32808	
8224	0	32793	
8225	0	32740	
8226	0	32760	
8227	0	32876	
8228	0	32848	
8229	0	32864	
8230	0	32848	
8231	0	32760	
8232	0	32704	
8233	0	32648	
8234	0	32712	
8235	0	32728	
8236	0	32705	
8237	0	32748	
8238	0	32752	
8239	0	32840	
8240	0	32892	
8241	0	32804	
8242	0	32792	
8243	0	32776	
8244	0	32812	
8245	0	32748	
8246	0	32788	
8247	0	32832	
8248	0	32768	
8249	0	32820	
8250	0	32816	
8251	0	32768	
8252	0	32752	
8253	0	32692	
8254	0	32724	
8255	0	32704	
8256	0	32756	
8257	0	32664	
8258	0	32741	
8259	0	32734	
8260	0	32896	
8261	0	32864	
8262	0	32877	
8263	0	32860	
8264	0	32844	
8265	0	32864	
8266	0	32788	
8267	0	32884	
8268	0	32736	
8269	0	32732	
8270	0	32815	
8271	0	32724	
8272	0	32708	
8273	0	32720	
8274	0	32704	
8275	0	32765	
8276	0	32744	
8277	0	32704	
8278	0	32768	
8279	0	32781	
8280	0	32878	
8281	0	32816	
8282	0	32870	
8283	0	32748	
8284	0	32828	
8285	0	32841	
8286	0	32817	
8287	0	32852	
8288	0	32816	
8289	0	32844	
8290	0	32792	
8291	0	32772	
8292	0	32724	
8293	0	32740	
8294	0	32740	
8295	0	32692	
8296	0	32730	
8297	0	32700	
8298	0	32796	
8299	0	32812	
8300	0	32828	
8301	0	32848	
8302	0	32828	
8303	0	32806	
8304	0	32788	
8305	0	32852	
8306	0	32828	
8307	0	32740	
8308	0	32761	
8309	0	32838	
8310	0	32800	
8311	0	32760	
8312	0	32721	
8313	0	32700	
8314	0	32692	
8315	0	32713	
8316	0	32700	
8317	0	32704	
8318	0	32735	
8319	0	32768	
8320	0	32820	
8321	0	32856	
8322	0	32872	
8323	0	32800	
8324	0	32800	
8325	0	32814	
8326	0	32808	
8327	0	32856	
8328	0	32836	
8329	0	32820	
8330	0	32744	
8331	0	32751	
8332	0	32784	
8333	0	32720	
8334	0	32704	
8335	0	32740	
8336	0	32672	
8337	0	32775	
8338	0	32736	
8339	0	32756	
8340	0	32838	
8341	0	32832	
8342	0	32837	
8343	0	32832	
8344	0	32808	
8345	0	32816	
8346	0	32804	
8347	0	32800	
8348	0	32852	
8349	0	32804	
8350	0	32844	
8351	0	32741	
8352	0	32764	
8353	0	32736	
8354	0	32720	
8355	0	32680	
8356	0	32729	
8357	0	32752	
8358	0	32792	
8359	0	32864	
8360	0	32804	
8361	0	32880	
8362	0	32852	
8363	0	32792	
8364	0	32800	
8365	0	32744	
8366	0	32804	
8367	0	32805	
8368	0	32780	
8369	0	32716	
8370	0	32757	
8371	0	32784	
8372	0	32732	
8373	0	32756	
8374	0	32712	
8375	0	32798	
8376	0	32744	
8377	0	32740	
8378	0	32756	
8379	0	32836	
8380	0	32864	
8381	0	32809	
8382	0	32886	
8383	0	32820	
8384	0	32872	
8385	0	32812	
8386	0	32814	
8387	0	32828	
8388	0	32824	
8389	0	32812	
8390	0	32833	
8391	0	32800	
8392	0	32800	
8393	0	32748	
8394	0	32710	
8395	0	32704	
8396	0	32688	
8397	0	32752	
8398	0	32812	
8399	0	32796	
8400	0	32917	
8401	0	32892	
8402	0	32826	
8403	0	32877	
8404	0	32804	
8405	0	32852	
8406	0	32820	
8407	0	32732	
8408	0	32696	
8409	0	32696	
8410	0	32714	
8411	0	32632	
8412	0	32694	
8413	0	32640	
8414	0	32708	
8415	0	32676	
8416	0	32648	
8417	0	32693	
8418	0	32740	
8419	0	32826	
8420	0	32844	
8421	0	32841	
8422	0	32888	
8423	0	32844	
8424	0	32772	
8425	0	32824	
8426	0	32769	
8427	0	32784	
8428	0	32800	
8429	0	32832	
8430	0	32740	
8431	0	32804	
8432	0	32676	
8433	0	32750	
8434	0	32772	
8435	0	32804	
8436	0	32740	
8437	0	32772	
8438	0	32756	
8439	0	32818	
8440	0	32816	
8441	0	32828	
8442	0	32876	
8443	0	32828	
8444	0	32800	
8445	0	32760	
8446	0	32812	
8447	0	32784	
8448	0	32820	
8449	0	32860	
8450	0	32780	
8451	0	32820	
8452	0	32700	
8453	0	32717	
8454	0	32768	
8455	0	32720	
8456	0	32684	
8457	0	32680	
8458	0	32744	
8459	0	32748	
8460	0	32784	
8461	0	32812	
8462	0	32888	
8463	0	32869	
8464	0	32869	
8465	0	32840	
8466	0	32824	
8467	0	32768	
8468	0	32792	
8469	0	32696	
8470	0	32724	
8471	0	32840	
8472	0	32644	
8473	0	32692	
8474	0	32704	
8475	0	32732	
8476	0	32796	
8477	0	32800	
8478	0	32733	
8479	0	32796	
8480	0	32852	
8481	0	32868	
8482	0	32776	
8483	0	32774	
8484	0	32832	
8485	0	32860	
8486	0	32732	
8487	0	32812	
8488	0	32740	
8489	0	32832	
8490	0	32840	
8491	0	32752	
8492	0	32704	
8493	0	32708	
8494	0	32821	
8495	0	32784	
8496	0	32716	
8497	0	32768	
8498	0	32748	
8499	0	32786	
8500	0	32844	
8501	0	32876	
8502	0	32860	
8503	0	32772	
8504	0	32828	
8505	0	32724	
8506	0	32820	
8507	0	32812	
8508	0	32804	
8509	0	32756	
8510	0	32840	
8511	0	32784	
8512	0	32749	
8513	0	32756	
8514	0	32668	
8515	0	32680	
8516	0	32684	
8517	0	32720	
8518	0	32772	
8519	0	32740	
8520	0	32834	
8521	0	32792	
8522	0	32820	
8523	0	32780	
8524	0	32741	
8525	0	32772	
8526	0	32820	
8527	0	32789	
8528	0	32774	
8529	0	32852	
8530	0	32804	
8531	0	32752	
8532	0	32700	
8533	0	32764	
8534	0	32727	
8535	0	32760	
8536	0	32752	
8537	0	32744	
8538	0	32708	
8539	0	32828	
8540	0	32876	
8541	0	32880	
8542	0	32916	
8543	0	32758	
8544	0	32752	
8545	0	32764	
8546	0	32836	
8547	0	32788	
8548	0	32806	
8549	0	32836	
8550	0	32754	
8551	0	32780	
8552	0	32756	
8553	0	32800	
8554	0	32736	
8555	0	32676	
8556	0	32692	
8557	0	32780	
8558	0	32772	
8559	0	32741	
8560	0	32816	
8561	0	32828	
8562	0	32812	
8563	0	32796	
8564	0	32750	
8565	0	32800	
8566	0	32808	
8567	0	32764	
8568	0	32776	
8569	0	32792	
8570	0	32836	
8571	0	32740	
8572	0	32700	
8573	0	32692	
8574	0	32685	
8575	0	32704	
8576	0	32740	
8577	0	32764	
8578	0	32832	
8579	0	32856	
8580	0	32832	
8581	0	32812	
8582	0	32798	
8583	0	32804	
8584	0	32844	
8585	0	32844	
8586	0	32840	
8587	0	32892	
8588	0	32828	
8589	0	32800	
8590	0	32784	
8591	0	32884	
8592	0	32740	
8593	0	32750	
8594	0	32728	
8595	0	32780	
8596	0	32684	
8597	0	32689	
8598	0	32757	
8599	0	32716	
8600	0	32816	
8601	0	32856	
8602	0	32820	
8603	0	32836	
8604	0	32812	
8605	0	32784	
8606	0	32815	
8607	0	32724	
8608	0	32832	
8609	0	32892	
8610	0	32792	
8611	0	32828	
8612	0	32725	
8613	0	32696	
