# OpenSignals Text File Format. Version 1
# {"00:07:80:4D:2E:9E": {"position": 0, "device": "biosignalsplux", "device name": "00:07:80:4D:2E:9E", "device connection": "BTH00:07:80:4D:2E:9E", "sampling rate": 500, "resolution": [16], "firmware version": 774, "comments": "", "keywords": "", "mode": 0, "sync interval": 2, "date": "2020-6-30", "time": "14:9:23.254", "channels": [1], "sensor": ["EMG"], "label": ["CH1"], "column": ["nSeq", "DI", "CH1"], "special": [{}], "digital IO": [0, 1]}}
# EndOfHeader
0	0	33736	
1	0	33468	
2	0	34060	
3	0	34384	
4	0	34280	
5	0	33364	
6	0	31696	
7	0	31802	
8	0	32540	
9	0	32268	
10	0	32616	
11	0	33480	
12	0	33596	
13	0	33364	
14	0	32192	
15	0	31776	
16	0	30760	
17	0	30877	
18	0	30508	
19	0	32008	
20	0	31913	
21	0	32966	
22	0	33296	
23	0	33376	
24	0	33380	
25	0	33241	
26	0	32252	
27	0	31576	
28	0	31960	
29	0	32760	
30	0	33092	
31	0	34048	
32	0	32840	
33	0	32950	
34	0	33164	
35	0	32493	
36	0	31500	
37	0	31620	
38	0	32148	
39	0	33957	
40	0	33568	
41	0	33752	
42	0	34356	
43	0	34572	
44	0	34468	
45	0	34384	
46	0	31704	
47	0	32560	
48	0	32844	
49	0	32120	
50	0	31960	
51	0	32434	
52	0	32532	
53	0	33152	
54	0	32860	
55	0	31852	
56	0	33576	
57	0	32684	
58	0	33312	
59	0	33940	
60	0	33776	
61	0	32740	
62	0	32668	
63	0	34392	
64	0	34392	
65	0	33008	
66	0	30372	
67	0	30936	
68	0	30240	
69	0	32736	
70	0	33896	
71	0	33648	
72	0	33564	
73	0	33572	
74	0	32900	
75	0	31384	
76	0	31768	
77	0	31952	
78	0	32236	
79	0	32908	
80	0	33476	
81	0	32764	
82	0	32568	
83	0	33236	
84	0	32160	
85	0	31472	
86	0	31605	
87	0	31956	
88	0	32661	
89	0	33352	
90	0	32872	
91	0	33604	
92	0	32610	
93	0	34548	
94	0	33472	
95	0	33148	
96	0	32110	
97	0	32652	
98	0	33224	
99	0	33284	
100	0	33408	
101	0	33596	
102	0	33412	
103	0	32725	
104	0	30848	
105	0	31004	
106	0	30264	
107	0	31620	
108	0	33368	
109	0	33916	
110	0	34220	
111	0	33276	
112	0	32408	
113	0	33024	
114	0	32812	
115	0	32768	
116	0	32140	
117	0	31448	
118	0	31892	
119	0	31904	
120	0	33516	
121	0	33700	
122	0	33304	
123	0	34448	
124	0	34584	
125	0	32968	
126	0	32576	
127	0	32392	
128	0	32792	
129	0	33476	
130	0	33472	
131	0	33344	
132	0	32876	
133	0	32840	
134	0	33472	
135	0	32248	
136	0	31264	
137	0	31148	
138	0	31826	
139	0	32340	
140	0	33540	
141	0	32804	
142	0	32380	
143	0	32577	
144	0	32812	
145	0	32788	
146	0	32560	
147	0	32385	
148	0	33212	
149	0	33756	
150	0	34436	
151	0	33276	
152	0	33048	
153	0	33196	
154	0	32734	
155	0	30516	
156	0	29544	
157	0	29829	
158	0	32708	
159	0	34132	
160	0	32856	
161	0	32656	
162	0	33040	
163	0	32832	
164	0	32802	
165	0	32192	
166	0	31672	
167	0	32058	
168	0	32292	
169	0	34300	
170	0	34628	
171	0	35064	
172	0	35052	
173	0	34132	
174	0	33884	
175	0	33324	
176	0	32180	
177	0	31816	
178	0	31212	
179	0	33108	
180	0	33568	
181	0	33500	
182	0	33664	
183	0	33076	
184	0	32764	
185	0	32104	
186	0	31072	
187	0	31892	
188	0	32656	
189	0	33108	
190	0	33116	
191	0	33368	
192	0	33524	
193	0	33428	
194	0	33420	
195	0	32796	
196	0	32408	
197	0	32012	
198	0	31372	
199	0	32236	
200	0	32744	
201	0	33180	
202	0	34108	
203	0	34220	
204	0	33301	
205	0	32285	
206	0	31205	
207	0	31836	
208	0	31524	
209	0	33228	
210	0	33892	
211	0	34212	
212	0	33460	
213	0	33304	
214	0	33232	
215	0	32088	
216	0	31609	
217	0	32112	
218	0	32224	
219	0	32728	
220	0	32972	
221	0	33772	
222	0	34148	
223	0	33788	
224	0	32761	
225	0	31424	
226	0	30948	
227	0	30128	
228	0	31840	
229	0	33508	
230	0	34052	
231	0	33356	
232	0	32840	
233	0	33120	
234	0	33176	
235	0	32476	
236	0	31121	
237	0	30960	
238	0	31484	
239	0	33428	
240	0	33960	
241	0	33984	
242	0	34104	
243	0	33932	
244	0	33424	
245	0	32717	
246	0	32188	
247	0	31940	
248	0	32821	
249	0	33504	
250	0	33640	
251	0	33702	
252	0	33592	
253	0	33420	
254	0	33476	
255	0	32588	
256	0	31872	
257	0	31680	
258	0	32325	
259	0	32756	
260	0	33192	
261	0	33708	
262	0	33164	
263	0	32504	
264	0	32924	
265	0	32332	
266	0	31308	
267	0	31704	
268	0	31908	
269	0	32968	
270	0	33080	
271	0	33180	
272	0	33220	
273	0	33852	
274	0	33120	
275	0	32412	
276	0	31712	
277	0	31041	
278	0	30600	
279	0	31536	
280	0	32524	
281	0	32836	
282	0	34020	
283	0	34728	
284	0	34748	
285	0	33476	
286	0	32200	
287	0	31368	
288	0	31248	
289	0	33228	
290	0	34188	
291	0	33764	
292	0	33548	
293	0	32724	
294	0	32932	
295	0	32736	
296	0	32374	
297	0	31992	
298	0	31812	
299	0	32916	
300	0	33588	
301	0	33224	
302	0	33284	
303	0	34021	
304	0	33136	
305	0	32844	
306	0	31500	
307	0	31192	
308	0	31276	
309	0	32320	
310	0	32772	
311	0	32856	
312	0	33076	
313	0	33212	
314	0	33337	
315	0	32884	
316	0	33472	
317	0	33728	
318	0	33428	
319	0	33628	
320	0	33465	
321	0	34721	
322	0	34412	
323	0	34948	
324	0	34768	
325	0	33424	
326	0	32464	
327	0	32748	
328	0	31536	
329	0	32624	
330	0	32492	
331	0	32280	
332	0	32016	
333	0	31960	
334	0	32192	
335	0	31104	
336	0	30724	
337	0	30417	
338	0	31192	
339	0	32696	
340	0	32660	
341	0	33156	
342	0	33200	
343	0	33520	
344	0	33204	
345	0	32388	
346	0	31460	
347	0	31756	
348	0	31882	
349	0	33348	
350	0	34013	
351	0	33813	
352	0	32788	
353	0	33844	
354	0	33640	
355	0	31988	
356	0	31844	
357	0	31180	
358	0	31080	
359	0	33092	
360	0	33857	
361	0	33996	
362	0	33660	
363	0	33676	
364	0	33516	
365	0	32728	
366	0	31400	
367	0	31374	
368	0	31884	
369	0	33816	
370	0	33660	
371	0	33445	
372	0	33292	
373	0	33204	
374	0	32948	
375	0	32072	
376	0	31336	
377	0	31398	
378	0	31356	
379	0	32284	
380	0	32704	
381	0	33212	
382	0	32952	
383	0	31896	
384	0	30800	
385	0	32788	
386	0	32352	
387	0	32050	
388	0	32148	
389	0	32948	
390	0	33541	
391	0	33876	
392	0	33736	
393	0	37268	
394	0	36620	
395	0	34844	
396	0	32768	
397	0	30693	
398	0	29744	
399	0	30276	
400	0	33940	
401	0	35096	
402	0	33772	
403	0	32664	
404	0	31480	
405	0	30476	
406	0	31460	
407	0	31260	
408	0	32308	
409	0	32540	
410	0	31372	
411	0	31176	
412	0	31572	
413	0	31948	
414	0	31468	
415	0	30768	
416	0	31920	
417	0	32964	
418	0	32992	
419	0	33924	
420	0	36820	
421	0	36776	
422	0	29804	
423	0	28376	
424	0	29344	
425	0	29792	
426	0	29764	
427	0	29844	
428	0	30820	
429	0	33944	
430	0	34508	
431	0	34630	
432	0	35440	
433	0	36000	
434	0	36160	
435	0	35880	
436	0	34956	
437	0	34248	
438	0	33680	
439	0	33636	
440	0	33256	
441	0	32964	
442	0	31756	
443	0	32128	
444	0	32268	
445	0	31268	
446	0	30644	
447	0	31352	
448	0	30368	
449	0	30593	
450	0	29680	
451	0	30304	
452	0	31052	
453	0	32504	
454	0	32440	
455	0	32508	
456	0	32572	
457	0	33032	
458	0	33636	
459	0	37796	
460	0	42392	
461	0	42708	
462	0	41988	
463	0	39768	
464	0	36024	
465	0	33600	
466	0	30860	
467	0	30172	
468	0	28840	
469	0	30040	
470	0	30560	
471	0	31672	
472	0	32044	
473	0	33076	
474	0	32772	
475	0	32988	
476	0	31536	
477	0	31732	
478	0	31759	
479	0	32884	
480	0	33536	
481	0	34696	
482	0	35180	
483	0	34948	
484	0	33252	
485	0	31920	
486	0	30581	
487	0	30140	
488	0	29272	
489	0	30004	
490	0	31544	
491	0	33188	
492	0	33068	
493	0	33404	
494	0	33520	
495	0	33688	
496	0	32472	
497	0	32160	
498	0	31332	
499	0	32822	
500	0	33632	
501	0	34492	
502	0	34540	
503	0	34520	
504	0	33928	
505	0	33100	
506	0	31680	
507	0	30990	
508	0	30068	
509	0	31516	
510	0	31844	
511	0	32604	
512	0	32676	
513	0	32428	
514	0	32188	
515	0	32356	
516	0	32093	
517	0	32404	
518	0	32616	
519	0	32889	
520	0	33152	
521	0	33744	
522	0	33820	
523	0	33700	
524	0	29628	
525	0	29148	
526	0	28604	
527	0	30676	
528	0	31956	
529	0	34008	
530	0	35020	
531	0	34400	
532	0	34380	
533	0	34948	
534	0	35356	
535	0	34396	
536	0	33764	
537	0	33536	
538	0	32912	
539	0	33468	
540	0	33924	
541	0	33916	
542	0	33068	
543	0	33620	
544	0	33480	
545	0	32672	
546	0	31788	
547	0	31704	
548	0	31492	
549	0	32780	
550	0	33388	
551	0	33268	
552	0	32548	
553	0	32568	
554	0	32372	
555	0	32631	
556	0	32404	
557	0	32840	
558	0	32252	
559	0	32705	
560	0	32776	
561	0	33232	
562	0	32536	
563	0	32544	
564	0	32496	
565	0	33268	
566	0	32160	
567	0	31860	
568	0	31140	
569	0	31452	
570	0	31328	
571	0	31872	
572	0	32084	
573	0	32372	
574	0	33968	
575	0	33460	
576	0	32173	
577	0	32693	
578	0	32036	
579	0	32608	
580	0	32748	
581	0	33548	
582	0	33253	
583	0	32872	
584	0	31840	
585	0	30561	
586	0	31700	
587	0	31756	
588	0	31500	
589	0	33792	
590	0	35228	
591	0	35276	
592	0	31416	
593	0	32336	
594	0	33648	
595	0	33436	
596	0	33344	
597	0	33192	
598	0	32612	
599	0	32864	
600	0	33897	
601	0	33756	
602	0	33808	
603	0	33836	
604	0	34104	
605	0	33084	
606	0	32528	
607	0	32396	
608	0	32504	
609	0	33220	
610	0	33576	
611	0	33004	
612	0	33496	
613	0	33820	
614	0	33392	
615	0	32457	
616	0	30985	
617	0	30793	
618	0	30464	
619	0	31108	
620	0	32008	
621	0	32284	
622	0	31608	
623	0	31608	
624	0	31841	
625	0	31924	
626	0	29632	
627	0	29676	
628	0	29829	
629	0	31652	
630	0	32900	
631	0	33736	
632	0	33044	
633	0	32328	
634	0	32112	
635	0	32200	
636	0	31252	
637	0	30468	
638	0	30724	
639	0	33432	
640	0	34070	
641	0	32904	
642	0	34972	
643	0	35556	
644	0	35848	
645	0	34476	
646	0	32404	
647	0	31584	
648	0	33076	
649	0	33496	
650	0	33220	
651	0	32580	
652	0	32764	
653	0	33900	
654	0	34252	
655	0	34228	
656	0	33448	
657	0	33284	
658	0	32052	
659	0	33988	
660	0	34289	
661	0	34500	
662	0	34080	
663	0	33256	
664	0	33053	
665	0	32484	
666	0	31276	
667	0	31600	
668	0	30728	
669	0	32958	
670	0	35538	
671	0	35672	
672	0	34888	
673	0	34500	
674	0	34548	
675	0	33696	
676	0	33244	
677	0	32824	
678	0	31724	
679	0	31964	
680	0	32252	
681	0	32624	
682	0	32392	
683	0	32868	
684	0	34084	
685	0	33188	
686	0	31168	
687	0	30844	
688	0	30428	
689	0	30416	
690	0	31072	
691	0	31432	
692	0	31800	
693	0	32084	
694	0	32652	
695	0	31440	
696	0	30804	
697	0	29100	
698	0	30680	
699	0	31620	
700	0	32237	
701	0	32260	
702	0	30736	
703	0	30872	
704	0	31080	
705	0	30548	
706	0	29533	
707	0	29868	
708	0	31925	
709	0	37392	
710	0	39564	
711	0	39900	
712	0	40860	
713	0	42928	
714	0	40156	
715	0	37852	
716	0	34761	
717	0	31068	
718	0	29040	
719	0	29204	
720	0	29520	
721	0	29504	
722	0	29116	
723	0	29582	
724	0	28576	
725	0	27062	
726	0	26817	
727	0	27192	
728	0	26788	
729	0	28828	
730	0	31680	
731	0	33012	
732	0	34788	
733	0	35920	
734	0	36288	
735	0	35444	
736	0	34208	
737	0	36198	
738	0	34304	
739	0	34936	
740	0	34896	
741	0	34744	
742	0	34980	
743	0	36320	
744	0	34087	
745	0	32204	
746	0	32576	
747	0	29556	
748	0	28296	
749	0	29336	
750	0	30824	
751	0	31741	
752	0	31342	
753	0	33040	
754	0	33156	
755	0	32852	
756	0	31896	
757	0	35480	
758	0	37012	
759	0	41048	
760	0	40748	
761	0	41612	
762	0	41600	
763	0	40205	
764	0	39336	
765	0	36580	
766	0	34636	
767	0	33592	
768	0	31533	
769	0	31192	
770	0	31108	
771	0	31124	
772	0	31712	
773	0	31548	
774	0	30770	
775	0	30500	
776	0	29548	
777	0	28808	
778	0	27872	
779	0	28216	
780	0	28972	
781	0	28472	
782	0	27248	
783	0	28528	
784	0	29765	
785	0	29068	
786	0	28946	
787	0	30132	
788	0	29380	
789	0	31356	
790	0	33768	
791	0	34076	
792	0	33216	
793	0	33612	
794	0	34488	
795	0	32936	
796	0	32160	
797	0	34932	
798	0	35204	
799	0	34380	
800	0	32980	
801	0	34396	
802	0	35148	
803	0	36132	
804	0	35648	
805	0	34988	
806	0	34116	
807	0	34380	
808	0	34716	
809	0	34740	
810	0	36192	
811	0	37080	
812	0	38412	
813	0	38704	
814	0	38716	
815	0	36056	
816	0	32476	
817	0	30068	
818	0	28764	
819	0	29592	
820	0	30189	
821	0	30529	
822	0	29756	
823	0	30096	
824	0	29100	
825	0	29644	
826	0	28744	
827	0	28740	
828	0	29164	
829	0	30796	
830	0	32244	
831	0	32304	
832	0	33850	
833	0	34040	
834	0	33916	
835	0	32836	
836	0	31812	
837	0	31680	
838	0	31696	
839	0	34972	
840	0	36392	
841	0	36404	
842	0	37256	
843	0	38192	
844	0	38000	
845	0	35388	
846	0	32449	
847	0	30540	
848	0	30372	
849	0	30648	
850	0	30728	
851	0	31390	
852	0	30868	
853	0	30116	
854	0	30648	
855	0	29764	
856	0	29268	
857	0	29864	
858	0	30634	
859	0	33244	
860	0	32576	
861	0	32136	
862	0	31616	
863	0	34088	
864	0	38672	
865	0	37877	
866	0	36776	
867	0	35886	
868	0	34588	
869	0	34492	
870	0	34856	
871	0	34488	
872	0	33984	
873	0	32720	
874	0	32400	
875	0	30952	
876	0	28573	
877	0	28564	
878	0	27496	
879	0	28520	
880	0	29428	
881	0	30336	
882	0	31500	
883	0	36120	
884	0	33964	
885	0	30340	
886	0	28876	
887	0	30496	
888	0	28132	
889	0	28345	
890	0	30944	
891	0	32236	
892	0	35412	
893	0	37148	
894	0	37400	
895	0	35985	
896	0	33504	
897	0	31796	
898	0	32204	
899	0	33108	
900	0	34288	
901	0	33880	
902	0	34476	
903	0	35528	
904	0	35728	
905	0	34816	
906	0	35724	
907	0	36060	
908	0	35464	
909	0	36096	
910	0	35790	
911	0	35616	
912	0	34752	
913	0	34293	
914	0	34332	
915	0	33028	
916	0	31392	
917	0	31308	
918	0	31013	
919	0	31785	
920	0	32160	
921	0	32564	
922	0	32644	
923	0	32604	
924	0	32480	
925	0	31584	
926	0	30208	
927	0	30172	
928	0	29904	
929	0	30980	
930	0	31816	
931	0	31936	
932	0	32132	
933	0	32152	
934	0	31240	
935	0	30044	
936	0	29360	
937	0	25876	
938	0	27220	
939	0	30052	
940	0	29800	
941	0	30997	
942	0	32712	
943	0	33812	
944	0	34989	
945	0	33238	
946	0	33609	
947	0	32328	
948	0	34154	
949	0	35300	
950	0	37156	
951	0	40740	
952	0	39348	
953	0	37144	
954	0	35040	
955	0	35423	
956	0	34552	
957	0	33388	
958	0	32033	
959	0	32400	
960	0	32384	
961	0	32992	
962	0	32784	
963	0	32968	
964	0	32408	
965	0	31560	
966	0	29976	
967	0	28502	
968	0	27584	
969	0	30341	
970	0	31116	
971	0	31456	
972	0	31916	
973	0	32120	
974	0	31940	
975	0	32224	
976	0	32122	
977	0	31796	
978	0	31470	
979	0	32512	
980	0	32288	
981	0	32428	
982	0	33204	
983	0	34316	
984	0	34056	
985	0	33064	
986	0	32364	
987	0	32172	
988	0	32488	
989	0	33504	
990	0	33976	
991	0	34730	
992	0	35300	
993	0	35160	
994	0	35097	
995	0	33885	
996	0	32598	
997	0	32400	
998	0	31936	
999	0	34280	
1000	0	35104	
1001	0	35524	
1002	0	34596	
1003	0	34976	
1004	0	34972	
1005	0	34016	
1006	0	23632	
1007	0	23200	
1008	0	23964	
1009	0	28141	
1010	0	30512	
1011	0	31612	
1012	0	32664	
1013	0	33480	
1014	0	32432	
1015	0	33013	
1016	0	33580	
1017	0	33132	
1018	0	31584	
1019	0	34164	
1020	0	34404	
1021	0	35196	
1022	0	35560	
1023	0	35628	
1024	0	35796	
1025	0	34284	
1026	0	33024	
1027	0	32344	
1028	0	32280	
1029	0	33176	
1030	0	33409	
1031	0	33681	
1032	0	34416	
1033	0	35412	
1034	0	34672	
1035	0	32644	
1036	0	31952	
1037	0	30660	
1038	0	30176	
1039	0	31408	
1040	0	31412	
1041	0	33212	
1042	0	34064	
1043	0	34740	
1044	0	34336	
1045	0	33128	
1046	0	32416	
1047	0	32212	
1048	0	31908	
1049	0	32616	
1050	0	32920	
1051	0	33952	
1052	0	33356	
1053	0	32364	
1054	0	32908	
1055	0	31784	
1056	0	31796	
1057	0	32357	
1058	0	32040	
1059	0	32736	
1060	0	33380	
1061	0	32928	
1062	0	32676	
1063	0	32580	
1064	0	33920	
1065	0	33776	
1066	0	33252	
1067	0	31908	
1068	0	31276	
1069	0	31740	
1070	0	32776	
1071	0	33852	
1072	0	32576	
1073	0	33444	
1074	0	32168	
1075	0	31836	
1076	0	33000	
1077	0	30924	
1078	0	33205	
1079	0	32464	
1080	0	33536	
1081	0	34196	
1082	0	35456	
1083	0	35097	
1084	0	33736	
1085	0	30772	
1086	0	26780	
1087	0	29516	
1088	0	29776	
1089	0	35072	
1090	0	31613	
1091	0	35156	
1092	0	38360	
1093	0	36336	
1094	0	32381	
1095	0	31156	
1096	0	35908	
1097	0	37844	
1098	0	31121	
1099	0	36412	
1100	0	37060	
1101	0	36592	
1102	0	34056	
1103	0	35344	
1104	0	35512	
1105	0	34460	
1106	0	33876	
1107	0	31804	
1108	0	32336	
1109	0	33365	
1110	0	33153	
1111	0	33104	
1112	0	33112	
1113	0	32544	
1114	0	32032	
1115	0	31620	
1116	0	31541	
1117	0	29761	
1118	0	29744	
1119	0	31692	
1120	0	32736	
1121	0	32184	
1122	0	32068	
1123	0	33392	
1124	0	33032	
1125	0	32736	
1126	0	31860	
1127	0	32440	
1128	0	32025	
1129	0	32096	
1130	0	32024	
1131	0	32784	
1132	0	33596	
1133	0	33216	
1134	0	32884	
1135	0	31880	
1136	0	31380	
1137	0	31216	
1138	0	30700	
1139	0	31916	
1140	0	32948	
1141	0	32964	
1142	0	33432	
1143	0	33028	
1144	0	33168	
1145	0	32020	
1146	0	31184	
1147	0	30724	
1148	0	30508	
1149	0	32660	
1150	0	33444	
1151	0	33852	
1152	0	34076	
1153	0	34588	
1154	0	34760	
1155	0	33552	
1156	0	32744	
1157	0	32012	
1158	0	31456	
1159	0	31336	
1160	0	32428	
1161	0	32268	
1162	0	32328	
1163	0	32448	
1164	0	33404	
1165	0	33480	
1166	0	32000	
1167	0	31208	
1168	0	31941	
1169	0	33255	
1170	0	32696	
1171	0	32588	
1172	0	33189	
1173	0	33144	
1174	0	33808	
1175	0	33296	
1176	0	32676	
1177	0	31952	
1178	0	31728	
1179	0	32828	
1180	0	33629	
1181	0	33449	
1182	0	33132	
1183	0	33916	
1184	0	34240	
1185	0	33693	
1186	0	32864	
1187	0	31816	
1188	0	30204	
1189	0	31668	
1190	0	32436	
1191	0	32924	
1192	0	33360	
1193	0	33824	
1194	0	34344	
1195	0	32900	
1196	0	31978	
1197	0	31608	
1198	0	31416	
1199	0	32644	
1200	0	33554	
1201	0	33688	
1202	0	33484	
1203	0	33568	
1204	0	33864	
1205	0	32816	
1206	0	31788	
1207	0	30996	
1208	0	30272	
1209	0	32604	
1210	0	33096	
1211	0	33156	
1212	0	33332	
1213	0	33324	
1214	0	33160	
1215	0	32028	
1216	0	32044	
1217	0	32116	
1218	0	32108	
1219	0	32420	
1220	0	32832	
1221	0	33208	
1222	0	33588	
1223	0	33886	
1224	0	34684	
1225	0	33364	
1226	0	32588	
1227	0	32584	
1228	0	32632	
1229	0	34124	
1230	0	34460	
1231	0	33537	
1232	0	32932	
1233	0	33192	
1234	0	33756	
1235	0	32832	
1236	0	30384	
1237	0	27604	
1238	0	28484	
1239	0	30664	
1240	0	32912	
1241	0	32560	
1242	0	32952	
1243	0	33012	
1244	0	34240	
1245	0	36464	
1246	0	35912	
1247	0	34996	
1248	0	33620	
1249	0	34992	
1250	0	35444	
1251	0	35008	
1252	0	34644	
1253	0	34212	
1254	0	29332	
1255	0	30836	
1256	0	30944	
1257	0	31368	
1258	0	30400	
1259	0	31808	
1260	0	32624	
1261	0	33092	
1262	0	33184	
1263	0	33177	
1264	0	32832	
1265	0	32352	
1266	0	32276	
1267	0	31376	
1268	0	31408	
1269	0	32708	
1270	0	32604	
1271	0	32512	
1272	0	33396	
1273	0	31552	
1274	0	33424	
1275	0	33412	
1276	0	32605	
1277	0	31554	
1278	0	31080	
1279	0	31796	
1280	0	32962	
1281	0	33696	
1282	0	34460	
1283	0	34408	
1284	0	33540	
1285	0	32096	
1286	0	31408	
1287	0	31352	
1288	0	31712	
1289	0	32637	
1290	0	33804	
1291	0	33640	
1292	0	33764	
1293	0	33204	
1294	0	33948	
1295	0	33764	
1296	0	33072	
1297	0	32484	
1298	0	31268	
1299	0	32076	
1300	0	32608	
1301	0	32972	
1302	0	33908	
1303	0	34416	
1304	0	33992	
1305	0	33096	
1306	0	32324	
1307	0	31820	
1308	0	30254	
1309	0	31136	
1310	0	32644	
1311	0	33440	
1312	0	33904	
1313	0	34008	
1314	0	34036	
1315	0	32864	
1316	0	32680	
1317	0	32480	
1318	0	31152	
1319	0	31973	
1320	0	31854	
1321	0	32092	
1322	0	33120	
1323	0	33241	
1324	0	33300	
1325	0	33316	
1326	0	33152	
1327	0	32548	
1328	0	31804	
1329	0	32192	
1330	0	32912	
1331	0	33988	
1332	0	34176	
1333	0	34728	
1334	0	33512	
1335	0	32608	
1336	0	31708	
1337	0	32044	
1338	0	32064	
1339	0	32872	
1340	0	33388	
1341	0	33272	
1342	0	33312	
1343	0	29256	
1344	0	30774	
1345	0	31622	
1346	0	31356	
1347	0	31780	
1348	0	32316	
1349	0	34244	
1350	0	35220	
1351	0	35192	
1352	0	34536	
1353	0	34317	
1354	0	34228	
1355	0	32584	
1356	0	31788	
1357	0	31528	
1358	0	31184	
1359	0	31792	
1360	0	31700	
1361	0	30180	
1362	0	31068	
1363	0	32640	
1364	0	34404	
1365	0	33780	
1366	0	33212	
1367	0	30160	
1368	0	29616	
1369	0	29912	
1370	0	30628	
1371	0	31168	
1372	0	32044	
1373	0	33805	
1374	0	35172	
1375	0	34662	
1376	0	35024	
1377	0	34832	
1378	0	33221	
1379	0	32676	
1380	0	31340	
1381	0	31944	
1382	0	33486	
1383	0	35400	
1384	0	35198	
1385	0	33374	
1386	0	33158	
1387	0	32884	
1388	0	30206	
1389	0	31868	
1390	0	33006	
1391	0	34536	
1392	0	34740	
1393	0	34544	
1394	0	33824	
1395	0	32628	
1396	0	31128	
1397	0	30565	
1398	0	30524	
1399	0	31824	
1400	0	33952	
1401	0	34372	
1402	0	34060	
1403	0	33996	
1404	0	34264	
1405	0	32980	
1406	0	32656	
1407	0	31824	
1408	0	31318	
1409	0	32821	
1410	0	33360	
1411	0	33032	
1412	0	33140	
1413	0	33148	
1414	0	33984	
1415	0	33284	
1416	0	32660	
1417	0	31608	
1418	0	31030	
1419	0	32136	
1420	0	32356	
1421	0	32908	
1422	0	33172	
1423	0	33565	
1424	0	33988	
1425	0	33624	
1426	0	32224	
1427	0	30773	
1428	0	28100	
1429	0	29268	
1430	0	31496	
1431	0	30917	
1432	0	28040	
1433	0	31492	
1434	0	34288	
1435	0	35284	
1436	0	35300	
1437	0	34268	
1438	0	32600	
1439	0	34548	
1440	0	36296	
1441	0	35790	
1442	0	36160	
1443	0	32225	
1444	0	30668	
1445	0	33104	
1446	0	33320	
1447	0	33496	
1448	0	32663	
1449	0	32048	
1450	0	32741	
1451	0	33624	
1452	0	34024	
1453	0	33652	
1454	0	33696	
1455	0	32740	
1456	0	32060	
1457	0	31392	
1458	0	30216	
1459	0	30668	
1460	0	32772	
1461	0	34017	
1462	0	31020	
1463	0	35033	
1464	0	37446	
1465	0	36268	
1466	0	35044	
1467	0	32644	
1468	0	31343	
1469	0	32400	
1470	0	32364	
1471	0	32249	
1472	0	32832	
1473	0	33172	
1474	0	33532	
1475	0	33112	
1476	0	32460	
1477	0	32044	
1478	0	31252	
1479	0	31336	
1480	0	32576	
1481	0	32784	
1482	0	33476	
1483	0	33740	
1484	0	33664	
1485	0	32324	
1486	0	32268	
1487	0	31756	
1488	0	31422	
1489	0	32580	
1490	0	33352	
1491	0	33632	
1492	0	34044	
1493	0	34068	
1494	0	34053	
1495	0	33204	
1496	0	31812	
1497	0	30388	
1498	0	29958	
1499	0	32088	
1500	0	32664	
1501	0	32860	
1502	0	32780	
1503	0	33400	
1504	0	33580	
1505	0	32454	
1506	0	32096	
1507	0	31124	
1508	0	31052	
1509	0	32528	
1510	0	33478	
1511	0	33177	
1512	0	33052	
1513	0	32872	
1514	0	32456	
1515	0	33524	
1516	0	32604	
1517	0	31504	
1518	0	30488	
1519	0	32068	
1520	0	31496	
1521	0	33124	
1522	0	33356	
1523	0	33444	
1524	0	33601	
1525	0	33708	
1526	0	31448	
1527	0	31328	
1528	0	31076	
1529	0	32092	
1530	0	32540	
1531	0	31884	
1532	0	30960	
1533	0	33701	
1534	0	34456	
1535	0	34276	
1536	0	33068	
1537	0	32476	
1538	0	30656	
1539	0	32968	
1540	0	32396	
1541	0	32860	
1542	0	32328	
1543	0	33561	
1544	0	35040	
1545	0	33693	
1546	0	32880	
1547	0	32536	
1548	0	31524	
1549	0	33428	
1550	0	33800	
1551	0	33656	
1552	0	34220	
1553	0	34112	
1554	0	32784	
1555	0	31948	
1556	0	31504	
1557	0	32872	
1558	0	32901	
1559	0	32780	
1560	0	33540	
1561	0	33508	
1562	0	34268	
1563	0	35264	
1564	0	34700	
1565	0	33600	
1566	0	33100	
1567	0	32324	
1568	0	30784	
1569	0	31632	
1570	0	32378	
1571	0	31788	
1572	0	31600	
1573	0	32560	
1574	0	33276	
1575	0	32736	
1576	0	32276	
1577	0	31884	
1578	0	30516	
1579	0	32012	
1580	0	33848	
1581	0	33416	
1582	0	34132	
1583	0	33238	
1584	0	33850	
1585	0	32100	
1586	0	32284	
1587	0	30596	
1588	0	29800	
1589	0	32044	
1590	0	32852	
1591	0	32440	
1592	0	34788	
1593	0	34272	
1594	0	33524	
1595	0	32536	
1596	0	30972	
1597	0	28904	
1598	0	27300	
1599	0	29840	
1600	0	33080	
1601	0	32968	
1602	0	34724	
1603	0	35084	
1604	0	35492	
1605	0	34040	
1606	0	34292	
1607	0	30648	
1608	0	31876	
1609	0	33152	
1610	0	33234	
1611	0	33188	
1612	0	34020	
1613	0	34272	
1614	0	32396	
1615	0	32960	
1616	0	33460	
1617	0	32792	
1618	0	32288	
1619	0	32612	
1620	0	33900	
1621	0	33544	
1622	0	35752	
1623	0	34576	
1624	0	33368	
1625	0	32576	
1626	0	32212	
1627	0	32224	
1628	0	31212	
1629	0	31848	
1630	0	30608	
1631	0	32996	
1632	0	34452	
1633	0	34168	
1634	0	34164	
1635	0	30318	
1636	0	30240	
1637	0	29836	
1638	0	31642	
1639	0	34404	
1640	0	35472	
1641	0	34628	
1642	0	33628	
1643	0	34704	
1644	0	34528	
1645	0	31236	
1646	0	30210	
1647	0	32406	
1648	0	32689	
1649	0	33176	
1650	0	33656	
1651	0	34084	
1652	0	34273	
1653	0	33852	
1654	0	34716	
1655	0	35973	
1656	0	32996	
1657	0	34000	
1658	0	35368	
1659	0	36296	
1660	0	35412	
1661	0	34404	
1662	0	33601	
1663	0	33272	
1664	0	32208	
1665	0	30268	
1666	0	29112	
1667	0	29220	
1668	0	29404	
1669	0	30788	
1670	0	31864	
1671	0	32852	
1672	0	33020	
1673	0	33772	
1674	0	34028	
1675	0	32868	
1676	0	31824	
1677	0	31812	
1678	0	31672	
1679	0	33484	
1680	0	34300	
1681	0	33188	
1682	0	34084	
1683	0	34712	
1684	0	34596	
1685	0	33272	
1686	0	31756	
1687	0	31364	
1688	0	31244	
1689	0	32270	
1690	0	32568	
1691	0	31792	
1692	0	31688	
1693	0	33792	
1694	0	33624	
1695	0	32520	
1696	0	31652	
1697	0	30600	
1698	0	30756	
1699	0	32261	
1700	0	32448	
1701	0	31020	
1702	0	31841	
1703	0	33748	
1704	0	33668	
1705	0	32692	
1706	0	32012	
1707	0	31972	
1708	0	31396	
1709	0	32196	
1710	0	32532	
1711	0	32748	
1712	0	32004	
1713	0	32256	
1714	0	34032	
1715	0	33389	
1716	0	33212	
1717	0	32592	
1718	0	31456	
1719	0	32212	
1720	0	33172	
1721	0	32524	
1722	0	32916	
1723	0	33244	
1724	0	34536	
1725	0	32432	
1726	0	31368	
1727	0	32401	
1728	0	32380	
1729	0	33860	
1730	0	34502	
1731	0	34060	
1732	0	33688	
1733	0	32792	
1734	0	30617	
1735	0	32024	
1736	0	32080	
1737	0	32056	
1738	0	30930	
1739	0	32808	
1740	0	34989	
1741	0	35821	
1742	0	35797	
1743	0	35308	
1744	0	34928	
1745	0	33668	
1746	0	32812	
1747	0	31192	
1748	0	30816	
1749	0	32076	
1750	0	32704	
1751	0	32960	
1752	0	32876	
1753	0	32944	
1754	0	32480	
1755	0	31456	
1756	0	30624	
1757	0	30316	
1758	0	32257	
1759	0	32952	
1760	0	32932	
1761	0	33452	
1762	0	33142	
1763	0	34125	
1764	0	35180	
1765	0	34444	
1766	0	33664	
1767	0	33436	
1768	0	33424	
1769	0	33916	
1770	0	33564	
1771	0	33100	
1772	0	32996	
1773	0	33852	
1774	0	33656	
1775	0	32936	
1776	0	32364	
1777	0	31517	
1778	0	30984	
1779	0	31832	
1780	0	32648	
1781	0	32964	
1782	0	33415	
1783	0	33512	
1784	0	33128	
1785	0	31792	
1786	0	31580	
1787	0	31356	
1788	0	30776	
1789	0	31896	
1790	0	32460	
1791	0	33244	
1792	0	33724	
1793	0	33148	
1794	0	33824	
1795	0	32928	
1796	0	32864	
1797	0	32824	
1798	0	31944	
1799	0	32128	
1800	0	32792	
1801	0	33608	
1802	0	33516	
1803	0	33476	
1804	0	32964	
1805	0	31269	
1806	0	30804	
1807	0	29668	
1808	0	30400	
1809	0	32264	
1810	0	33832	
1811	0	35144	
1812	0	36788	
1813	0	37620	
1814	0	34848	
1815	0	31592	
1816	0	30684	
1817	0	31028	
1818	0	31728	
1819	0	33398	
1820	0	34040	
1821	0	33540	
1822	0	33584	
1823	0	33172	
1824	0	32336	
1825	0	32156	
1826	0	31852	
1827	0	31098	
1828	0	31196	
1829	0	31884	
1830	0	32520	
1831	0	32608	
1832	0	32868	
1833	0	33360	
1834	0	33464	
1835	0	32900	
1836	0	31788	
1837	0	31604	
1838	0	26852	
1839	0	26036	
1840	0	28804	
1841	0	30988	
1842	0	32292	
1843	0	34134	
1844	0	34388	
1845	0	33957	
1846	0	33956	
1847	0	33248	
1848	0	32288	
1849	0	32613	
1850	0	32360	
1851	0	31680	
1852	0	32280	
1853	0	34528	
1854	0	35460	
1855	0	34436	
1856	0	33320	
1857	0	32808	
1858	0	31840	
1859	0	32421	
1860	0	33156	
1861	0	33848	
1862	0	34760	
1863	0	35340	
1864	0	35554	
1865	0	34860	
1866	0	33776	
1867	0	32877	
1868	0	31636	
1869	0	32428	
1870	0	32996	
1871	0	35533	
1872	0	35253	
1873	0	33696	
1874	0	34200	
1875	0	33296	
1876	0	32184	
1877	0	31588	
1878	0	31034	
1879	0	31872	
1880	0	32564	
1881	0	33152	
1882	0	33632	
1883	0	33120	
1884	0	33268	
1885	0	32680	
1886	0	31740	
1887	0	31788	
1888	0	31892	
1889	0	32862	
1890	0	32712	
1891	0	32352	
1892	0	32768	
1893	0	33796	
1894	0	33948	
1895	0	32960	
1896	0	31936	
1897	0	31632	
1898	0	30924	
1899	0	31362	
1900	0	31928	
1901	0	32920	
1902	0	33424	
1903	0	33368	
1904	0	33952	
1905	0	32708	
1906	0	31894	
1907	0	31668	
1908	0	31453	
1909	0	32762	
1910	0	33424	
1911	0	33296	
1912	0	33397	
1913	0	32976	
1914	0	33472	
1915	0	33345	
1916	0	31868	
1917	0	32020	
1918	0	31732	
1919	0	32428	
1920	0	33188	
1921	0	33684	
1922	0	33980	
1923	0	34853	
1924	0	34760	
1925	0	32084	
1926	0	30748	
1927	0	30642	
1928	0	30596	
1929	0	32280	
1930	0	33664	
1931	0	34664	
1932	0	34692	
1933	0	33968	
1934	0	33996	
1935	0	33224	
1936	0	32044	
1937	0	31468	
1938	0	31746	
1939	0	32864	
1940	0	33376	
1941	0	33244	
1942	0	32828	
1943	0	33424	
1944	0	32900	
1945	0	32126	
1946	0	31568	
1947	0	31788	
1948	0	31136	
1949	0	33640	
1950	0	33916	
1951	0	33840	
1952	0	33912	
1953	0	34312	
1954	0	34260	
1955	0	31692	
1956	0	30886	
1957	0	30648	
1958	0	31304	
1959	0	32936	
1960	0	34464	
1961	0	33956	
1962	0	33676	
1963	0	33800	
1964	0	33376	
1965	0	33200	
1966	0	31812	
1967	0	31424	
1968	0	31340	
1969	0	32296	
1970	0	32940	
1971	0	33628	
1972	0	33804	
1973	0	33817	
1974	0	33668	
1975	0	32585	
1976	0	32036	
1977	0	30772	
1978	0	31288	
1979	0	32552	
1980	0	32692	
1981	0	32192	
1982	0	32228	
1983	0	32916	
1984	0	33368	
1985	0	32552	
1986	0	32290	
1987	0	31064	
1988	0	31648	
1989	0	32784	
1990	0	33652	
1991	0	34432	
1992	0	33440	
1993	0	34544	
1994	0	35152	
1995	0	33388	
1996	0	33352	
1997	0	31908	
1998	0	31840	
1999	0	32708	
2000	0	33264	
2001	0	33461	
2002	0	34080	
2003	0	33076	
2004	0	32584	
2005	0	33456	
2006	0	32808	
2007	0	33080	
2008	0	31056	
2009	0	31248	
2010	0	32320	
2011	0	33300	
2012	0	33156	
2013	0	33492	
2014	0	33334	
2015	0	32272	
2016	0	31912	
2017	0	32133	
2018	0	32158	
2019	0	32812	
2020	0	33028	
2021	0	34068	
2022	0	34388	
2023	0	33745	
2024	0	33332	
2025	0	33469	
2026	0	32756	
2027	0	32496	
2028	0	31908	
2029	0	32784	
2030	0	32744	
2031	0	33256	
2032	0	32516	
2033	0	31928	
2034	0	31804	
2035	0	31560	
2036	0	31260	
2037	0	31012	
2038	0	31420	
2039	0	32826	
2040	0	33722	
2041	0	33472	
2042	0	32841	
2043	0	33868	
2044	0	35460	
2045	0	34656	
2046	0	33765	
2047	0	32620	
2048	0	31708	
2049	0	32512	
2050	0	32341	
2051	0	32100	
2052	0	30848	
2053	0	30157	
2054	0	31348	
2055	0	30829	
2056	0	31380	
2057	0	31248	
2058	0	32130	
2059	0	33280	
2060	0	34216	
2061	0	34844	
2062	0	34088	
2063	0	34040	
2064	0	35240	
2065	0	34336	
2066	0	33808	
2067	0	32044	
2068	0	30976	
2069	0	31232	
2070	0	32030	
2071	0	32704	
2072	0	33600	
2073	0	33640	
2074	0	34152	
2075	0	33252	
2076	0	31936	
2077	0	30853	
2078	0	30656	
2079	0	30580	
2080	0	31620	
2081	0	32428	
2082	0	31888	
2083	0	32264	
2084	0	33364	
2085	0	33116	
2086	0	33140	
2087	0	32952	
2088	0	32996	
2089	0	33772	
2090	0	34348	
2091	0	34160	
2092	0	34284	
2093	0	34364	
2094	0	34276	
2095	0	33221	
2096	0	32156	
2097	0	31524	
2098	0	31188	
2099	0	31764	
2100	0	32802	
2101	0	33281	
2102	0	33848	
2103	0	34128	
2104	0	33868	
2105	0	32968	
2106	0	33568	
2107	0	33912	
2108	0	33348	
2109	0	33772	
2110	0	33844	
2111	0	33524	
2112	0	33300	
2113	0	33448	
2114	0	33197	
2115	0	31788	
2116	0	31852	
2117	0	31200	
2118	0	31132	
2119	0	31756	
2120	0	32760	
2121	0	33134	
2122	0	32024	
2123	0	31692	
2124	0	32712	
2125	0	32800	
2126	0	32264	
2127	0	31576	
2128	0	30809	
2129	0	31360	
2130	0	32560	
2131	0	32632	
2132	0	33080	
2133	0	33316	
2134	0	33660	
2135	0	33400	
2136	0	31776	
2137	0	30760	
2138	0	31061	
2139	0	31796	
2140	0	33793	
2141	0	33784	
2142	0	34912	
2143	0	34449	
2144	0	34652	
2145	0	33840	
2146	0	32720	
2147	0	31484	
2148	0	29700	
2149	0	29980	
2150	0	31440	
2151	0	33456	
2152	0	33431	
2153	0	33536	
2154	0	32876	
2155	0	33262	
2156	0	32828	
2157	0	31824	
2158	0	31668	
2159	0	32644	
2160	0	33520	
2161	0	33440	
2162	0	32944	
2163	0	33932	
2164	0	35033	
2165	0	28808	
2166	0	30778	
2167	0	34044	
2168	0	34400	
2169	0	35348	
2170	0	34524	
2171	0	34173	
2172	0	31944	
2173	0	31900	
2174	0	34088	
2175	0	33528	
2176	0	32032	
2177	0	28516	
2178	0	32276	
2179	0	33124	
2180	0	33576	
2181	0	33272	
2182	0	33109	
2183	0	34560	
2184	0	34332	
2185	0	33532	
2186	0	31928	
2187	0	30804	
2188	0	30401	
2189	0	31840	
2190	0	30700	
2191	0	32277	
2192	0	33344	
2193	0	33448	
2194	0	34220	
2195	0	34336	
2196	0	33792	
2197	0	30712	
2198	0	27328	
2199	0	29276	
2200	0	33009	
2201	0	34300	
2202	0	35560	
2203	0	35744	
2204	0	35468	
2205	0	34020	
2206	0	32728	
2207	0	32492	
2208	0	31584	
2209	0	32640	
2210	0	33356	
2211	0	33360	
2212	0	33476	
2213	0	33038	
2214	0	33284	
2215	0	32473	
2216	0	32188	
2217	0	32208	
2218	0	31716	
2219	0	32028	
2220	0	32176	
2221	0	31784	
2222	0	31912	
2223	0	32272	
2224	0	33588	
2225	0	33262	
2226	0	32760	
2227	0	31996	
2228	0	32680	
2229	0	32612	
2230	0	34160	
2231	0	34833	
2232	0	34556	
2233	0	33468	
2234	0	32880	
2235	0	33364	
2236	0	32972	
2237	0	32444	
2238	0	32160	
2239	0	32556	
2240	0	33340	
2241	0	33132	
2242	0	33562	
2243	0	33564	
2244	0	33204	
2245	0	32672	
2246	0	32364	
2247	0	31392	
2248	0	31040	
2249	0	32212	
2250	0	33232	
2251	0	33588	
2252	0	33164	
2253	0	33496	
2254	0	34121	
2255	0	33532	
2256	0	32920	
2257	0	31808	
2258	0	31564	
2259	0	32812	
2260	0	33036	
2261	0	32536	
2262	0	32476	
2263	0	33096	
2264	0	33912	
2265	0	33156	
2266	0	32700	
2267	0	31760	
2268	0	31956	
2269	0	33269	
2270	0	33992	
2271	0	34108	
2272	0	33216	
2273	0	32910	
2274	0	32878	
2275	0	32456	
2276	0	31924	
2277	0	31554	
2278	0	31164	
2279	0	31556	
2280	0	32808	
2281	0	32948	
2282	0	33056	
2283	0	33342	
2284	0	33220	
2285	0	32632	
2286	0	32576	
2287	0	31789	
2288	0	31748	
2289	0	32516	
2290	0	33109	
2291	0	33256	
2292	0	33088	
2293	0	32612	
2294	0	32768	
2295	0	31780	
2296	0	31164	
2297	0	30200	
2298	0	29728	
2299	0	32848	
2300	0	34656	
2301	0	34472	
2302	0	32556	
2303	0	33404	
2304	0	34529	
2305	0	33817	
2306	0	33517	
2307	0	32788	
2308	0	30836	
2309	0	31376	
2310	0	32676	
2311	0	34384	
2312	0	34156	
2313	0	34316	
2314	0	34396	
2315	0	32996	
2316	0	32308	
2317	0	31300	
2318	0	31616	
2319	0	31784	
2320	0	32148	
2321	0	32700	
2322	0	32992	
2323	0	33256	
2324	0	33128	
2325	0	32742	
2326	0	32124	
2327	0	31952	
2328	0	30836	
2329	0	33864	
2330	0	32478	
2331	0	32780	
2332	0	33200	
2333	0	32684	
2334	0	32152	
2335	0	30500	
2336	0	34144	
2337	0	33764	
2338	0	33828	
2339	0	34876	
2340	0	34016	
2341	0	33672	
2342	0	33416	
2343	0	33556	
2344	0	33728	
2345	0	33824	
2346	0	32784	
2347	0	31508	
2348	0	31112	
2349	0	32108	
2350	0	32885	
2351	0	33561	
2352	0	33262	
2353	0	33444	
2354	0	32176	
2355	0	31692	
2356	0	31738	
2357	0	31400	
2358	0	31124	
2359	0	32504	
2360	0	33104	
2361	0	33168	
2362	0	32904	
2363	0	33180	
2364	0	33400	
2365	0	32776	
2366	0	32356	
2367	0	31848	
2368	0	30896	
2369	0	31497	
2370	0	32796	
2371	0	33088	
2372	0	33248	
2373	0	33101	
2374	0	35024	
2375	0	34372	
2376	0	33492	
2377	0	32032	
2378	0	28804	
2379	0	30140	
2380	0	30958	
2381	0	31532	
2382	0	33220	
2383	0	34232	
2384	0	34040	
2385	0	33028	
2386	0	32534	
2387	0	31388	
2388	0	31300	
2389	0	32220	
2390	0	32578	
2391	0	32992	
2392	0	33096	
2393	0	32712	
2394	0	32900	
2395	0	32536	
2396	0	32952	
2397	0	32776	
2398	0	31924	
2399	0	32032	
2400	0	31680	
2401	0	32704	
2402	0	32616	
2403	0	34352	
2404	0	33288	
2405	0	30841	
2406	0	30844	
2407	0	30520	
2408	0	28972	
2409	0	31496	
2410	0	33096	
2411	0	34816	
2412	0	34764	
2413	0	33632	
2414	0	39040	
2415	0	37088	
2416	0	34600	
2417	0	30332	
2418	0	30437	
2419	0	29660	
2420	0	30689	
2421	0	34428	
2422	0	37542	
2423	0	41724	
2424	0	39316	
2425	0	36857	
2426	0	35516	
2427	0	34465	
2428	0	32784	
2429	0	31880	
2430	0	32010	
2431	0	29604	
2432	0	28752	
2433	0	30522	
2434	0	31180	
2435	0	31400	
2436	0	31304	
2437	0	29745	
2438	0	28872	
2439	0	31432	
2440	0	33908	
2441	0	33280	
2442	0	31889	
2443	0	31744	
2444	0	34028	
2445	0	34021	
2446	0	32248	
2447	0	31012	
2448	0	29936	
2449	0	31809	
2450	0	28500	
2451	0	26878	
2452	0	32916	
2453	0	34488	
2454	0	38260	
2455	0	38452	
2456	0	35224	
2457	0	34164	
2458	0	34488	
2459	0	33844	
2460	0	33960	
2461	0	33148	
2462	0	32024	
2463	0	34376	
2464	0	35176	
2465	0	33676	
2466	0	32448	
2467	0	30796	
2468	0	31788	
2469	0	32625	
2470	0	37636	
2471	0	37672	
2472	0	37452	
2473	0	35964	
2474	0	34488	
2475	0	33636	
2476	0	32684	
2477	0	31444	
2478	0	30400	
2479	0	31788	
2480	0	32776	
2481	0	32188	
2482	0	32789	
2483	0	32812	
2484	0	32448	
2485	0	31268	
2486	0	30616	
2487	0	29548	
2488	0	29324	
2489	0	29936	
2490	0	30200	
2491	0	30692	
2492	0	31156	
2493	0	32292	
2494	0	32631	
2495	0	32512	
2496	0	31944	
2497	0	31420	
2498	0	30684	
2499	0	31156	
2500	0	31901	
2501	0	32684	
2502	0	33652	
2503	0	33504	
2504	0	32536	
2505	0	31336	
2506	0	28936	
2507	0	28424	
2508	0	29444	
2509	0	33260	
2510	0	36420	
2511	0	33440	
2512	0	32240	
2513	0	33324	
2514	0	35380	
2515	0	32508	
2516	0	33172	
2517	0	37360	
2518	0	35808	
2519	0	35228	
2520	0	36652	
2521	0	38204	
2522	0	36172	
2523	0	35740	
2524	0	36696	
2525	0	35097	
2526	0	33644	
2527	0	32064	
2528	0	31104	
2529	0	31040	
2530	0	31156	
2531	0	30818	
2532	0	28608	
2533	0	33160	
2534	0	32984	
2535	0	31960	
2536	0	31052	
2537	0	30532	
2538	0	31610	
2539	0	32552	
2540	0	33550	
2541	0	32836	
2542	0	32481	
2543	0	32836	
2544	0	32676	
2545	0	32208	
2546	0	31817	
2547	0	31092	
2548	0	30808	
2549	0	32056	
2550	0	32501	
2551	0	32448	
2552	0	32808	
2553	0	32828	
2554	0	33716	
2555	0	33188	
2556	0	32440	
2557	0	32480	
2558	0	32508	
2559	0	34266	
2560	0	35960	
2561	0	35260	
2562	0	34580	
2563	0	34800	
2564	0	34140	
2565	0	33116	
2566	0	31792	
2567	0	31028	
2568	0	30828	
2569	0	31328	
2570	0	31980	
2571	0	32148	
2572	0	32610	
2573	0	33136	
2574	0	33758	
2575	0	33445	
2576	0	31196	
2577	0	31072	
2578	0	31172	
2579	0	33084	
2580	0	33740	
2581	0	33976	
2582	0	34412	
2583	0	34968	
2584	0	34312	
2585	0	34752	
2586	0	34332	
2587	0	33756	
2588	0	33224	
2589	0	33992	
2590	0	32700	
2591	0	33876	
2592	0	33324	
2593	0	32884	
2594	0	33928	
2595	0	33872	
2596	0	31868	
2597	0	31920	
2598	0	31776	
2599	0	32008	
2600	0	32912	
2601	0	31488	
2602	0	32984	
2603	0	33316	
2604	0	33540	
2605	0	32332	
2606	0	31232	
2607	0	31156	
2608	0	30624	
2609	0	31192	
2610	0	31508	
2611	0	31508	
2612	0	31676	
2613	0	31933	
2614	0	31704	
2615	0	31084	
2616	0	31317	
2617	0	30300	
2618	0	29336	
2619	0	30081	
2620	0	31752	
2621	0	33076	
2622	0	34196	
2623	0	34944	
2624	0	35136	
2625	0	34980	
2626	0	33828	
2627	0	31768	
2628	0	30252	
2629	0	30892	
2630	0	33637	
2631	0	31492	
2632	0	31588	
2633	0	31348	
2634	0	33492	
2635	0	36124	
2636	0	37032	
2637	0	35756	
2638	0	37108	
2639	0	36733	
2640	0	35844	
2641	0	34416	
2642	0	31888	
2643	0	33468	
2644	0	33776	
2645	0	33057	
2646	0	33480	
2647	0	32796	
2648	0	30912	
2649	0	32588	
2650	0	34616	
2651	0	34548	
2652	0	34036	
2653	0	32062	
2654	0	31390	
2655	0	30592	
2656	0	29992	
2657	0	29316	
2658	0	29800	
2659	0	30680	
2660	0	32332	
2661	0	33556	
2662	0	33620	
2663	0	33492	
2664	0	33472	
2665	0	32694	
2666	0	33088	
2667	0	31924	
2668	0	31301	
2669	0	32202	
2670	0	33256	
2671	0	32828	
2672	0	33166	
2673	0	33276	
2674	0	34092	
2675	0	33612	
2676	0	32952	
2677	0	31608	
2678	0	30588	
2679	0	31440	
2680	0	31612	
2681	0	31620	
2682	0	32636	
2683	0	33060	
2684	0	33808	
2685	0	33172	
2686	0	32644	
2687	0	32744	
2688	0	30868	
2689	0	31792	
2690	0	34880	
2691	0	35300	
2692	0	35844	
2693	0	34556	
2694	0	33972	
2695	0	33072	
2696	0	32436	
2697	0	32112	
2698	0	31816	
2699	0	32824	
2700	0	33900	
2701	0	34100	
2702	0	34636	
2703	0	33836	
2704	0	32825	
2705	0	32400	
2706	0	31184	
2707	0	30913	
2708	0	32116	
2709	0	32605	
2710	0	33296	
2711	0	34388	
2712	0	34400	
2713	0	33936	
2714	0	33772	
2715	0	32556	
2716	0	30980	
2717	0	30144	
2718	0	30213	
2719	0	31082	
2720	0	32412	
2721	0	32444	
2722	0	31688	
2723	0	30548	
2724	0	32676	
2725	0	33440	
2726	0	32980	
2727	0	32820	
2728	0	33688	
2729	0	33884	
2730	0	33188	
2731	0	33272	
2732	0	31964	
2733	0	30464	
2734	0	31037	
2735	0	32616	
2736	0	33116	
2737	0	32237	
2738	0	29845	
2739	0	33084	
2740	0	35212	
2741	0	35740	
2742	0	35028	
2743	0	34640	
2744	0	34964	
2745	0	34120	
2746	0	33526	
2747	0	33900	
2748	0	33433	
2749	0	33624	
2750	0	33904	
2751	0	33804	
2752	0	33428	
2753	0	32300	
2754	0	32788	
2755	0	32160	
2756	0	32110	
2757	0	31945	
2758	0	31288	
2759	0	32561	
2760	0	32876	
2761	0	32944	
2762	0	32376	
2763	0	32917	
2764	0	33216	
2765	0	33196	
2766	0	28684	
2767	0	27840	
2768	0	29280	
2769	0	27728	
2770	0	26529	
2771	0	29204	
2772	0	32268	
2773	0	39976	
2774	0	33932	
2775	0	30984	
2776	0	30328	
2777	0	30412	
2778	0	31360	
2779	0	33752	
2780	0	33284	
2781	0	39956	
2782	0	39976	
2783	0	38208	
2784	0	37356	
2785	0	35456	
2786	0	33704	
2787	0	32236	
2788	0	31072	
2789	0	32528	
2790	0	33716	
2791	0	28644	
2792	0	31342	
2793	0	33712	
2794	0	33752	
2795	0	33201	
2796	0	32932	
2797	0	31872	
2798	0	31832	
2799	0	33108	
2800	0	33360	
2801	0	32792	
2802	0	32388	
2803	0	29216	
2804	0	32476	
2805	0	33277	
2806	0	33260	
2807	0	32604	
2808	0	32016	
2809	0	33236	
2810	0	33004	
2811	0	32879	
2812	0	32828	
2813	0	33940	
2814	0	32736	
2815	0	32208	
2816	0	33152	
2817	0	32852	
2818	0	31960	
2819	0	33456	
2820	0	33486	
2821	0	32977	
2822	0	33024	
2823	0	32736	
2824	0	26188	
2825	0	24928	
2826	0	27196	
2827	0	30216	
2828	0	31904	
2829	0	32140	
2830	0	34872	
2831	0	35012	
2832	0	35276	
2833	0	37604	
2834	0	37168	
2835	0	35068	
2836	0	31912	
2837	0	29796	
2838	0	31168	
2839	0	32644	
2840	0	30836	
2841	0	32612	
2842	0	34716	
2843	0	33388	
2844	0	33950	
2845	0	34240	
2846	0	33288	
2847	0	32356	
2848	0	31536	
2849	0	30224	
2850	0	31596	
2851	0	35736	
2852	0	35060	
2853	0	35620	
2854	0	36464	
2855	0	34864	
2856	0	31764	
2857	0	29544	
2858	0	30649	
2859	0	33020	
2860	0	33756	
2861	0	33260	
2862	0	34420	
2863	0	33300	
2864	0	32448	
2865	0	31412	
2866	0	31480	
2867	0	31024	
2868	0	30056	
2869	0	31300	
2870	0	33760	
2871	0	34276	
2872	0	35220	
2873	0	32588	
2874	0	32944	
2875	0	31964	
2876	0	32116	
2877	0	33429	
2878	0	33276	
2879	0	32812	
2880	0	34516	
2881	0	33412	
2882	0	32572	
2883	0	33648	
2884	0	34932	
2885	0	33640	
2886	0	32252	
2887	0	30596	
2888	0	30828	
2889	0	31253	
2890	0	32538	
2891	0	33192	
2892	0	32752	
2893	0	33744	
2894	0	33424	
2895	0	33536	
2896	0	32704	
2897	0	32428	
2898	0	32004	
2899	0	32852	
2900	0	33604	
2901	0	32780	
2902	0	34496	
2903	0	34856	
2904	0	34764	
2905	0	34344	
2906	0	32852	
2907	0	31949	
2908	0	31029	
2909	0	31728	
2910	0	32042	
2911	0	32892	
2912	0	33469	
2913	0	33216	
2914	0	33248	
2915	0	33080	
2916	0	31664	
2917	0	31256	
2918	0	30664	
2919	0	29950	
2920	0	32748	
2921	0	33584	
2922	0	33544	
2923	0	34828	
2924	0	34436	
2925	0	33869	
2926	0	32857	
2927	0	31662	
2928	0	31140	
2929	0	31256	
2930	0	32024	
2931	0	32544	
2932	0	32972	
2933	0	32868	
2934	0	34204	
2935	0	33660	
2936	0	33065	
2937	0	31348	
2938	0	31372	
2939	0	31628	
2940	0	32292	
2941	0	33892	
2942	0	34444	
2943	0	34604	
2944	0	34537	
2945	0	33308	
2946	0	32772	
2947	0	31704	
2948	0	32085	
2949	0	32212	
2950	0	32714	
2951	0	33536	
2952	0	32436	
2953	0	32525	
2954	0	34208	
2955	0	37924	
2956	0	37004	
2957	0	35156	
2958	0	33604	
2959	0	33312	
2960	0	32840	
2961	0	32372	
2962	0	32840	
2963	0	33040	
2964	0	33047	
2965	0	32464	
2966	0	31724	
2967	0	30921	
2968	0	30716	
2969	0	30240	
2970	0	32232	
2971	0	32680	
2972	0	33540	
2973	0	31756	
2974	0	30132	
2975	0	31793	
2976	0	29116	
2977	0	27420	
2978	0	29804	
2979	0	33116	
2980	0	33908	
2981	0	28088	
2982	0	20064	
2983	0	23100	
2984	0	26436	
2985	0	27564	
2986	0	29828	
2987	0	32164	
2988	0	32428	
2989	0	35016	
2990	0	38740	
2991	0	37532	
2992	0	45696	
2993	0	48384	
2994	0	45688	
2995	0	32260	
2996	0	18404	
2997	0	20450	
2998	0	26080	
2999	0	29888	
3000	0	31392	
3001	0	30792	
3002	0	31540	
3003	0	30382	
3004	0	30332	
3005	0	36564	
3006	0	40212	
3007	0	36512	
3008	0	33385	
3009	0	34164	
3010	0	32928	
3011	0	33500	
3012	0	33772	
3013	0	34749	
3014	0	34829	
3015	0	32348	
3016	0	31788	
3017	0	32485	
3018	0	30752	
3019	0	32376	
3020	0	33112	
3021	0	33536	
3022	0	34484	
3023	0	33320	
3024	0	33292	
3025	0	34172	
3026	0	35772	
3027	0	29228	
3028	0	30524	
3029	0	31392	
3030	0	27888	
3031	0	34204	
3032	0	31768	
3033	0	31288	
3034	0	32028	
3035	0	37924	
3036	0	40604	
3037	0	42712	
3038	0	43540	
3039	0	43092	
3040	0	41124	
3041	0	42264	
3042	0	40148	
3043	0	37176	
3044	0	35660	
3045	0	33296	
3046	0	31300	
3047	0	29708	
3048	0	28056	
3049	0	28732	
3050	0	29244	
3051	0	29889	
3052	0	30440	
3053	0	31504	
3054	0	31576	
3055	0	30604	
3056	0	31224	
3057	0	31030	
3058	0	30904	
3059	0	30912	
3060	0	31368	
3061	0	31644	
3062	0	33432	
3063	0	33177	
3064	0	33460	
3065	0	32644	
3066	0	30884	
3067	0	29628	
3068	0	29668	
3069	0	31000	
3070	0	32704	
3071	0	33184	
3072	0	33732	
3073	0	33856	
3074	0	33806	
3075	0	33272	
3076	0	32908	
3077	0	31468	
3078	0	31508	
3079	0	32396	
3080	0	33464	
3081	0	33262	
3082	0	32984	
3083	0	33828	
3084	0	34228	
3085	0	33136	
3086	0	32208	
3087	0	31520	
3088	0	30944	
3089	0	31924	
3090	0	32596	
3091	0	32788	
3092	0	33504	
3093	0	34076	
3094	0	34604	
3095	0	33148	
3096	0	32136	
3097	0	30992	
3098	0	30636	
3099	0	31592	
3100	0	32440	
3101	0	33084	
3102	0	33396	
3103	0	33032	
3104	0	33372	
3105	0	32332	
3106	0	31477	
3107	0	31264	
3108	0	31028	
3109	0	31780	
3110	0	33212	
3111	0	33268	
3112	0	33304	
3113	0	33204	
3114	0	33656	
3115	0	33112	
3116	0	32376	
3117	0	31768	
3118	0	31184	
3119	0	31882	
3120	0	32808	
3121	0	33668	
3122	0	33636	
3123	0	33412	
3124	0	33525	
3125	0	32296	
3126	0	32712	
3127	0	31616	
3128	0	31117	
3129	0	31356	
3130	0	31842	
3131	0	32760	
3132	0	32676	
3133	0	33780	
3134	0	33797	
3135	0	33336	
3136	0	32828	
3137	0	32688	
3138	0	30544	
3139	0	32240	
3140	0	33401	
3141	0	32792	
3142	0	33180	
3143	0	33588	
3144	0	33584	
3145	0	33856	
3146	0	34168	
3147	0	33597	
3148	0	31997	
3149	0	32620	
3150	0	33288	
3151	0	33192	
3152	0	33368	
3153	0	32886	
3154	0	33876	
3155	0	33388	
3156	0	32536	
3157	0	30908	
3158	0	30020	
3159	0	31804	
3160	0	33432	
3161	0	34104	
3162	0	32928	
3163	0	33300	
3164	0	33336	
3165	0	32752	
3166	0	31900	
3167	0	31796	
3168	0	30950	
3169	0	33608	
3170	0	33040	
3171	0	32868	
3172	0	32512	
3173	0	32324	
3174	0	32877	
3175	0	32110	
3176	0	31612	
3177	0	31980	
3178	0	32252	
3179	0	32680	
3180	0	34348	
3181	0	35220	
3182	0	35096	
3183	0	35120	
3184	0	34732	
3185	0	33272	
3186	0	32864	
3187	0	31324	
3188	0	30696	
3189	0	31196	
3190	0	31680	
3191	0	31760	
3192	0	33164	
3193	0	33104	
3194	0	33476	
3195	0	33144	
3196	0	32980	
3197	0	32036	
3198	0	31548	
3199	0	31480	
3200	0	32696	
3201	0	32968	
3202	0	34136	
3203	0	33772	
3204	0	33440	
3205	0	34084	
3206	0	32924	
3207	0	32244	
3208	0	31001	
3209	0	34696	
3210	0	35868	
3211	0	35374	
3212	0	34764	
3213	0	34916	
3214	0	34564	
3215	0	31449	
3216	0	29756	
3217	0	29208	
3218	0	29888	
3219	0	30912	
3220	0	32520	
3221	0	33492	
3222	0	34104	
3223	0	33476	
3224	0	33788	
3225	0	32964	
3226	0	31697	
3227	0	30876	
3228	0	31408	
3229	0	31108	
3230	0	31500	
3231	0	32216	
3232	0	33064	
3233	0	34092	
3234	0	34644	
3235	0	33612	
3236	0	31708	
3237	0	30596	
3238	0	28736	
3239	0	29120	
3240	0	28440	
3241	0	30576	
3242	0	30636	
3243	0	32080	
3244	0	30152	
3245	0	28601	
3246	0	26784	
3247	0	29616	
3248	0	26108	
3249	0	27365	
3250	0	34352	
3251	0	28044	
3252	0	23208	
3253	0	37064	
3254	0	37068	
3255	0	42420	
3256	0	48372	
3257	0	46684	
3258	0	41064	
3259	0	37928	
3260	0	37396	
3261	0	36040	
3262	0	35672	
3263	0	34848	
3264	0	35216	
3265	0	33128	
3266	0	33588	
3267	0	32264	
3268	0	30536	
3269	0	30508	
3270	0	31844	
3271	0	32500	
3272	0	33216	
3273	0	33885	
3274	0	33441	
3275	0	32796	
3276	0	31544	
3277	0	30784	
3278	0	30196	
3279	0	32236	
3280	0	33758	
3281	0	34272	
3282	0	32904	
3283	0	33400	
3284	0	34860	
3285	0	33464	
3286	0	32652	
3287	0	31150	
3288	0	30241	
3289	0	30544	
3290	0	30676	
3291	0	31616	
3292	0	32374	
3293	0	32060	
3294	0	32224	
3295	0	31512	
3296	0	29352	
3297	0	28596	
3298	0	27392	
3299	0	30904	
3300	0	31032	
3301	0	32968	
3302	0	33656	
3303	0	30166	
3304	0	27897	
3305	0	27492	
3306	0	27068	
3307	0	31280	
3308	0	30532	
3309	0	31412	
3310	0	36048	
3311	0	28776	
3312	0	27520	
3313	0	30388	
3314	0	33572	
3315	0	47492	
3316	0	33756	
3317	0	30124	
3318	0	30264	
3319	0	34689	
3320	0	36340	
3321	0	36600	
3322	0	35810	
3323	0	35264	
3324	0	32832	
3325	0	33436	
3326	0	32528	
3327	0	31744	
3328	0	40296	
3329	0	16608	
3330	0	29928	
3331	0	35120	
3332	0	36080	
3333	0	37452	
3334	0	36412	
3335	0	34608	
3336	0	33512	
3337	0	32532	
3338	0	33008	
3339	0	34592	
3340	0	34736	
3341	0	34320	
3342	0	33360	
3343	0	33328	
3344	0	33160	
3345	0	31600	
3346	0	31332	
3347	0	31744	
3348	0	31328	
3349	0	32260	
3350	0	31925	
3351	0	31212	
3352	0	30484	
3353	0	32376	
3354	0	34156	
3355	0	32924	
3356	0	53184	
3357	0	51520	
3358	0	44960	
3359	0	39740	
3360	0	36623	
3361	0	34240	
3362	0	32732	
3363	0	31500	
3364	0	32372	
3365	0	30410	
3366	0	28242	
3367	0	27532	
3368	0	27656	
3369	0	29089	
3370	0	30598	
3371	0	30936	
3372	0	31624	
3373	0	32448	
3374	0	32632	
3375	0	32196	
3376	0	31244	
3377	0	30008	
3378	0	29984	
3379	0	31537	
3380	0	32736	
3381	0	32396	
3382	0	32248	
3383	0	32056	
3384	0	30324	
3385	0	29188	
3386	0	29420	
3387	0	29756	
3388	0	29596	
3389	0	29738	
3390	0	31716	
3391	0	32704	
3392	0	32580	
3393	0	34160	
3394	0	33910	
3395	0	33236	
3396	0	32732	
3397	0	32112	
3398	0	30976	
3399	0	32412	
3400	0	32734	
3401	0	33845	
3402	0	34040	
3403	0	35044	
3404	0	35132	
3405	0	34112	
3406	0	34408	
3407	0	32932	
3408	0	31012	
3409	0	30752	
3410	0	35140	
3411	0	36658	
3412	0	35960	
3413	0	35340	
3414	0	34572	
3415	0	33588	
3416	0	32864	
3417	0	31412	
3418	0	31284	
3419	0	32024	
3420	0	32568	
3421	0	32017	
3422	0	31940	
3423	0	32224	
3424	0	32672	
3425	0	32492	
3426	0	32064	
3427	0	31524	
3428	0	32068	
3429	0	33252	
3430	0	33828	
3431	0	33976	
3432	0	33736	
3433	0	33308	
3434	0	33440	
3435	0	32700	
3436	0	31669	
3437	0	30360	
3438	0	30708	
3439	0	32616	
3440	0	33676	
3441	0	36544	
3442	0	34472	
3443	0	33172	
3444	0	33264	
3445	0	32184	
3446	0	31990	
3447	0	31380	
3448	0	30928	
3449	0	32358	
3450	0	33448	
3451	0	33192	
3452	0	34280	
3453	0	34588	
3454	0	34844	
3455	0	33920	
3456	0	32872	
3457	0	31912	
3458	0	31364	
3459	0	32016	
3460	0	33856	
3461	0	36504	
3462	0	35464	
3463	0	34652	
3464	0	33572	
3465	0	33448	
3466	0	32750	
3467	0	31917	
3468	0	30600	
3469	0	32513	
3470	0	33508	
3471	0	33436	
3472	0	33052	
3473	0	32664	
3474	0	31540	
3475	0	30644	
3476	0	30465	
3477	0	30604	
3478	0	31616	
3479	0	33070	
3480	0	33334	
3481	0	33628	
3482	0	34248	
3483	0	34864	
3484	0	34784	
3485	0	33464	
3486	0	31981	
3487	0	31280	
3488	0	30672	
3489	0	31716	
3490	0	32500	
3491	0	31508	
3492	0	31004	
3493	0	31532	
3494	0	32728	
3495	0	32252	
3496	0	31840	
3497	0	31352	
3498	0	30876	
3499	0	31764	
3500	0	33205	
3501	0	33528	
3502	0	34170	
3503	0	33560	
3504	0	33132	
3505	0	32604	
3506	0	33076	
3507	0	32008	
3508	0	31680	
3509	0	32358	
3510	0	33148	
3511	0	33172	
3512	0	33240	
3513	0	33948	
3514	0	33740	
3515	0	32680	
3516	0	31744	
3517	0	30004	
3518	0	28872	
3519	0	31236	
3520	0	33548	
3521	0	33892	
3522	0	34620	
3523	0	34144	
3524	0	34640	
3525	0	33744	
3526	0	32628	
3527	0	31888	
3528	0	32184	
3529	0	33388	
3530	0	33308	
3531	0	33732	
3532	0	33940	
3533	0	35308	
3534	0	35528	
3535	0	34564	
3536	0	33460	
3537	0	31360	
3538	0	30820	
3539	0	31704	
3540	0	32472	
3541	0	31856	
3542	0	32492	
3543	0	32924	
3544	0	32916	
3545	0	31580	
3546	0	31502	
3547	0	30984	
3548	0	30724	
3549	0	31796	
3550	0	32132	
3551	0	32444	
3552	0	32640	
3553	0	33008	
3554	0	33444	
3555	0	32924	
3556	0	32480	
3557	0	30384	
3558	0	31552	
3559	0	32764	
3560	0	32796	
3561	0	32908	
3562	0	34380	
3563	0	35136	
3564	0	35188	
3565	0	33909	
3566	0	31428	
3567	0	31405	
3568	0	31388	
3569	0	32448	
3570	0	33388	
3571	0	33306	
3572	0	33471	
3573	0	34152	
3574	0	34264	
3575	0	32692	
3576	0	30528	
3577	0	29925	
3578	0	31412	
3579	0	32632	
3580	0	33824	
3581	0	33984	
3582	0	34132	
3583	0	34981	
3584	0	34092	
3585	0	33021	
3586	0	31608	
3587	0	30624	
3588	0	30664	
3589	0	32300	
3590	0	33860	
3591	0	34104	
3592	0	33709	
3593	0	33476	
3594	0	33916	
3595	0	33120	
3596	0	33104	
3597	0	34108	
3598	0	32668	
3599	0	32696	
3600	0	33760	
3601	0	33393	
3602	0	33152	
3603	0	33696	
3604	0	34848	
3605	0	34692	
3606	0	33540	
3607	0	32037	
3608	0	31224	
3609	0	31576	
3610	0	32724	
3611	0	33568	
3612	0	33552	
3613	0	33004	
3614	0	32520	
3615	0	32220	
3616	0	31366	
3617	0	31872	
3618	0	30365	
3619	0	30836	
3620	0	30252	
3621	0	32420	
3622	0	33218	
3623	0	34732	
3624	0	33644	
3625	0	33004	
3626	0	32828	
3627	0	31456	
3628	0	30952	
3629	0	30952	
3630	0	31796	
3631	0	33160	
3632	0	33956	
3633	0	34181	
3634	0	33180	
3635	0	33012	
3636	0	32868	
3637	0	32016	
3638	0	31756	
3639	0	32640	
3640	0	33888	
3641	0	33437	
3642	0	33808	
3643	0	34508	
3644	0	34940	
3645	0	35032	
3646	0	34648	
3647	0	32632	
3648	0	31928	
3649	0	32136	
3650	0	32200	
3651	0	32452	
3652	0	33556	
3653	0	33812	
3654	0	33412	
3655	0	32516	
3656	0	31696	
3657	0	31036	
3658	0	30796	
3659	0	31944	
3660	0	33780	
3661	0	33148	
3662	0	33160	
3663	0	33121	
3664	0	33668	
3665	0	32900	
3666	0	32132	
3667	0	31524	
3668	0	31201	
3669	0	31796	
3670	0	33088	
3671	0	33020	
3672	0	33420	
3673	0	33496	
3674	0	34056	
3675	0	33544	
3676	0	32572	
3677	0	31322	
3678	0	30605	
3679	0	31996	
3680	0	32700	
3681	0	33240	
3682	0	33592	
3683	0	33998	
3684	0	34308	
3685	0	34016	
3686	0	32924	
3687	0	31264	
3688	0	31004	
3689	0	31808	
3690	0	32888	
3691	0	32576	
3692	0	32608	
3693	0	32748	
3694	0	33276	
3695	0	33140	
3696	0	32608	
3697	0	31913	
3698	0	31252	
3699	0	32024	
3700	0	33037	
3701	0	33260	
3702	0	33730	
3703	0	33244	
3704	0	33392	
3705	0	33072	
3706	0	32416	
3707	0	31648	
3708	0	31437	
3709	0	32588	
3710	0	32804	
3711	0	33312	
3712	0	33630	
3713	0	33860	
3714	0	33964	
3715	0	33804	
3716	0	33044	
3717	0	32600	
3718	0	31632	
3719	0	32836	
3720	0	33964	
3721	0	34020	
3722	0	33880	
3723	0	33824	
3724	0	33864	
3725	0	33128	
3726	0	32580	
3727	0	31152	
3728	0	29712	
3729	0	30609	
3730	0	31694	
3731	0	32476	
3732	0	33448	
3733	0	33732	
3734	0	33316	
3735	0	33472	
3736	0	32752	
3737	0	31872	
3738	0	30904	
3739	0	31840	
3740	0	32640	
3741	0	32972	
3742	0	33604	
3743	0	34116	
3744	0	33624	
3745	0	32774	
3746	0	32096	
3747	0	30932	
3748	0	30572	
3749	0	31945	
3750	0	32836	
3751	0	32848	
3752	0	33284	
3753	0	33474	
3754	0	33276	
3755	0	32612	
3756	0	32576	
3757	0	31988	
3758	0	31840	
3759	0	32600	
3760	0	33252	
3761	0	33516	
3762	0	34008	
3763	0	34169	
3764	0	34176	
3765	0	34277	
3766	0	33744	
3767	0	30884	
3768	0	32848	
3769	0	33936	
3770	0	33000	
3771	0	33076	
3772	0	34024	
3773	0	33484	
3774	0	33496	
3775	0	33120	
3776	0	32576	
3777	0	31764	
3778	0	31552	
3779	0	32336	
3780	0	33520	
3781	0	33324	
3782	0	33500	
3783	0	33484	
3784	0	33796	
3785	0	33020	
3786	0	32232	
3787	0	31549	
3788	0	31280	
3789	0	32356	
3790	0	33164	
3791	0	32840	
3792	0	32644	
3793	0	33228	
3794	0	33180	
3795	0	32412	
3796	0	32184	
3797	0	31208	
3798	0	30780	
3799	0	29840	
3800	0	31840	
3801	0	31976	
3802	0	32704	
3803	0	32836	
3804	0	33076	
3805	0	33092	
3806	0	33020	
3807	0	32428	
3808	0	31992	
3809	0	33044	
3810	0	34196	
3811	0	34492	
3812	0	34356	
3813	0	35308	
3814	0	35248	
3815	0	33664	
3816	0	32376	
3817	0	31193	
3818	0	30780	
3819	0	31080	
3820	0	32012	
3821	0	32480	
3822	0	32812	
3823	0	33460	
3824	0	33668	
3825	0	33340	
3826	0	32220	
3827	0	31288	
3828	0	30738	
3829	0	31180	
3830	0	30536	
3831	0	32766	
3832	0	33980	
3833	0	34092	
3834	0	34272	
3835	0	33740	
3836	0	32736	
3837	0	31528	
3838	0	31876	
3839	0	32816	
3840	0	33344	
3841	0	33744	
3842	0	33849	
3843	0	33480	
3844	0	33248	
3845	0	32925	
3846	0	31708	
3847	0	31536	
3848	0	31380	
3849	0	32352	
3850	0	32828	
3851	0	33232	
3852	0	34756	
3853	0	34800	
3854	0	33120	
3855	0	32336	
3856	0	32253	
3857	0	31556	
3858	0	31408	
3859	0	31998	
3860	0	32816	
3861	0	33316	
3862	0	33896	
3863	0	33932	
3864	0	32420	
3865	0	31644	
3866	0	31156	
3867	0	30580	
3868	0	30396	
3869	0	31626	
3870	0	33220	
3871	0	33992	
3872	0	34344	
3873	0	34072	
3874	0	34136	
3875	0	34444	
3876	0	32942	
3877	0	31612	
3878	0	29960	
3879	0	30752	
3880	0	33272	
3881	0	33744	
3882	0	20641	
3883	0	19996	
3884	0	23776	
3885	0	26832	
3886	0	30920	
3887	0	31384	
3888	0	29936	
3889	0	30756	
3890	0	31960	
3891	0	31836	
3892	0	32112	
3893	0	48560	
3894	0	46792	
3895	0	28976	
3896	0	25760	
3897	0	27376	
3898	0	28528	
3899	0	31316	
3900	0	34040	
3901	0	35772	
3902	0	36300	
3903	0	36700	
3904	0	35792	
3905	0	38508	
3906	0	47484	
3907	0	44744	
3908	0	40100	
3909	0	37064	
3910	0	36926	
3911	0	36692	
3912	0	34528	
3913	0	34496	
3914	0	34004	
3915	0	33396	
3916	0	32040	
3917	0	30752	
3918	0	29664	
3919	0	29332	
3920	0	31108	
3921	0	27929	
3922	0	27640	
3923	0	29352	
3924	0	31044	
3925	0	31164	
3926	0	30144	
3927	0	29316	
3928	0	29596	
3929	0	31624	
3930	0	32700	
3931	0	32352	
3932	0	32436	
3933	0	30916	
3934	0	31840	
3935	0	32296	
3936	0	33180	
3937	0	32008	
3938	0	31444	
3939	0	34628	
3940	0	36112	
3941	0	36204	
3942	0	35876	
3943	0	37824	
3944	0	36776	
3945	0	34460	
3946	0	33336	
3947	0	32880	
3948	0	32220	
3949	0	31604	
3950	0	33448	
3951	0	34256	
3952	0	34132	
3953	0	34560	
3954	0	34424	
3955	0	32016	
3956	0	31696	
3957	0	30816	
3958	0	30460	
3959	0	31452	
3960	0	30928	
3961	0	30028	
3962	0	31429	
3963	0	32497	
3964	0	34448	
3965	0	34648	
3966	0	33932	
3967	0	33060	
3968	0	32261	
3969	0	32524	
3970	0	32708	
3971	0	32500	
3972	0	32508	
3973	0	33396	
3974	0	34144	
3975	0	33732	
3976	0	32492	
3977	0	31556	
3978	0	31064	
3979	0	32320	
3980	0	32968	
3981	0	32440	
3982	0	33468	
3983	0	32796	
3984	0	33360	
3985	0	32428	
3986	0	31958	
3987	0	31528	
3988	0	31184	
3989	0	31736	
3990	0	32016	
3991	0	32504	
3992	0	33124	
3993	0	33596	
3994	0	33876	
3995	0	33340	
3996	0	32960	
3997	0	32048	
3998	0	31837	
3999	0	32196	
4000	0	32724	
4001	0	32288	
4002	0	32764	
4003	0	34349	
4004	0	32976	
4005	0	33188	
4006	0	31984	
4007	0	30464	
4008	0	29924	
4009	0	31952	
4010	0	33310	
4011	0	34220	
4012	0	34456	
4013	0	34280	
4014	0	33776	
4015	0	33024	
4016	0	32285	
4017	0	32400	
4018	0	33348	
4019	0	34664	
4020	0	34964	
4021	0	33948	
4022	0	33664	
4023	0	32772	
4024	0	32740	
4025	0	33668	
4026	0	33376	
4027	0	32664	
4028	0	32052	
4029	0	32353	
4030	0	33044	
4031	0	32852	
4032	0	32856	
4033	0	31736	
4034	0	25628	
4035	0	24948	
4036	0	33652	
4037	0	29860	
4038	0	10444	
4039	0	15720	
4040	0	20397	
4041	0	23732	
4042	0	25896	
4043	0	26588	
4044	0	59208	
4045	0	65528	
4046	0	11488	
4047	0	62084	
4048	0	56856	
4049	0	50268	
4050	0	45624	
4051	0	42248	
4052	0	39784	
4053	0	37980	
4054	0	36632	
4055	0	35652	
4056	0	34928	
4057	0	34396	
4058	0	33985	
4059	0	33700	
4060	0	33492	
4061	0	33321	
4062	0	31200	
4063	0	30260	
4064	0	30360	
4065	0	29528	
4066	0	27944	
4067	0	27964	
4068	0	27160	
4069	0	28868	
4070	0	30636	
4071	0	31172	
4072	0	31000	
4073	0	30960	
4074	0	31668	
4075	0	26072	
4076	0	15492	
4077	0	10	
4078	0	9345	
4079	0	15786	
4080	0	20358	
4081	0	23672	
4082	0	26084	
4083	0	65524	
4084	0	63524	
4085	0	54680	
4086	0	48716	
4087	0	44500	
4088	0	41416	
4089	0	39168	
4090	0	37500	
4091	0	36268	
4092	0	35364	
4093	0	34724	
4094	0	36216	
4095	0	35724	
4096	0	34832	
4097	0	34268	
4098	0	33885	
4099	0	33604	
4100	0	33404	
4101	0	33260	
4102	0	4304	
4103	0	7	
4104	0	1990	
4105	0	59136	
4106	0	56000	
4107	0	49544	
4108	0	44976	
4109	0	41680	
4110	0	39292	
4111	0	37540	
4112	0	36268	
4113	0	35332	
4114	0	34660	
4115	0	34168	
4116	0	33813	
4117	0	33548	
4118	0	33364	
4119	0	33216	
4120	0	30828	
4121	0	30564	
4122	0	28004	
4123	0	29728	
4124	0	32708	
4125	0	33532	
4126	0	33808	
4127	0	33164	
4128	0	30560	
4129	0	30168	
4130	0	30004	
4131	0	27464	
4132	0	28052	
4133	0	29652	
4134	0	31084	
4135	0	31480	
4136	0	31208	
4137	0	31892	
4138	0	30716	
4139	0	28716	
4140	0	27892	
4141	0	28545	
4142	0	30488	
4143	0	32920	
4144	0	35568	
4145	0	33868	
4146	0	31572	
4147	0	31992	
4148	0	33068	
4149	0	33604	
4150	0	33684	
4151	0	34208	
4152	0	32272	
4153	0	31584	
4154	0	31476	
4155	0	31136	
4156	0	31528	
4157	0	31172	
4158	0	30040	
4159	0	30496	
4160	0	32052	
4161	0	32740	
4162	0	33532	
4163	0	34068	
4164	0	33416	
4165	0	33080	
4166	0	32360	
4167	0	31100	
4168	0	30572	
4169	0	31312	
4170	0	31636	
4171	0	30908	
4172	0	29928	
4173	0	31208	
4174	0	35120	
4175	0	36736	
4176	0	37052	
4177	0	33972	
4178	0	31972	
4179	0	29672	
4180	0	30084	
4181	0	30672	
4182	0	31212	
4183	0	31700	
4184	0	33576	
4185	0	31860	
4186	0	34516	
4187	0	37072	
4188	0	35308	
4189	0	32740	
4190	0	28856	
4191	0	30556	
4192	0	32052	
4193	0	33629	
4194	0	33357	
4195	0	33068	
4196	0	32088	
4197	0	31244	
4198	0	29992	
4199	0	31268	
4200	0	31784	
4201	0	31668	
4202	0	32528	
4203	0	33428	
4204	0	33708	
4205	0	32564	
4206	0	32014	
4207	0	31744	
4208	0	29816	
4209	0	30596	
4210	0	31541	
4211	0	31480	
4212	0	31792	
4213	0	33526	
4214	0	35124	
4215	0	34404	
4216	0	32644	
4217	0	32212	
4218	0	31104	
4219	0	31728	
4220	0	32508	
4221	0	33396	
4222	0	32580	
4223	0	28880	
4224	0	31184	
4225	0	35620	
4226	0	38508	
4227	0	38916	
4228	0	36796	
4229	0	34044	
4230	0	31224	
4231	0	29308	
4232	0	29500	
4233	0	31596	
4234	0	33960	
4235	0	34280	
4236	0	32824	
4237	0	29740	
4238	0	29484	
4239	0	32676	
4240	0	35260	
4241	0	35224	
4242	0	35308	
4243	0	34512	
4244	0	34208	
4245	0	32992	
4246	0	31444	
4247	0	31028	
4248	0	30032	
4249	0	30036	
4250	0	31536	
4251	0	32644	
4252	0	33740	
4253	0	34084	
4254	0	34016	
4255	0	33700	
4256	0	32452	
4257	0	31116	
4258	0	30701	
4259	0	31388	
4260	0	32464	
4261	0	32872	
4262	0	33620	
4263	0	34020	
4264	0	33781	
4265	0	33230	
4266	0	32348	
4267	0	31408	
4268	0	30572	
4269	0	31438	
4270	0	32525	
4271	0	32648	
4272	0	33420	
4273	0	33840	
4274	0	34400	
4275	0	33600	
4276	0	32580	
4277	0	31386	
4278	0	31252	
4279	0	32608	
4280	0	33394	
4281	0	34028	
4282	0	33800	
4283	0	33781	
4284	0	34152	
4285	0	33404	
4286	0	32872	
4287	0	31996	
4288	0	30936	
4289	0	31440	
4290	0	32448	
4291	0	32833	
4292	0	32968	
4293	0	33228	
4294	0	33629	
4295	0	33100	
4296	0	31944	
4297	0	31228	
4298	0	31256	
4299	0	32320	
4300	0	33716	
4301	0	34008	
4302	0	33949	
4303	0	34280	
4304	0	34284	
4305	0	33520	
4306	0	31831	
4307	0	29992	
4308	0	30789	
4309	0	32654	
4310	0	33828	
4311	0	33444	
4312	0	33940	
4313	0	34600	
4314	0	34128	
4315	0	34360	
4316	0	32782	
4317	0	32216	
4318	0	30948	
4319	0	31188	
4320	0	31924	
4321	0	31420	
4322	0	32400	
4323	0	33656	
4324	0	33536	
4325	0	32432	
4326	0	31836	
4327	0	31446	
4328	0	30968	
4329	0	32169	
4330	0	31872	
4331	0	32910	
4332	0	33584	
4333	0	34732	
4334	0	34372	
4335	0	33360	
4336	0	32117	
4337	0	32516	
4338	0	31348	
4339	0	31824	
4340	0	33476	
4341	0	33868	
4342	0	33496	
4343	0	33632	
4344	0	33981	
4345	0	32812	
4346	0	32344	
4347	0	31176	
4348	0	30936	
4349	0	31656	
4350	0	32772	
4351	0	32576	
4352	0	32564	
4353	0	32752	
4354	0	33060	
4355	0	33020	
4356	0	33060	
4357	0	32088	
4358	0	31788	
4359	0	32428	
4360	0	33076	
4361	0	33208	
4362	0	33608	
4363	0	33510	
4364	0	33526	
4365	0	33144	
4366	0	32312	
4367	0	31556	
4368	0	31432	
4369	0	32260	
4370	0	33256	
4371	0	33640	
4372	0	34028	
4373	0	33504	
4374	0	32864	
4375	0	33316	
4376	0	32654	
4377	0	31788	
4378	0	31758	
4379	0	31232	
4380	0	31400	
4381	0	32398	
4382	0	33844	
4383	0	34452	
4384	0	33756	
4385	0	33500	
4386	0	33232	
4387	0	31484	
4388	0	30397	
4389	0	31758	
4390	0	33332	
4391	0	33380	
4392	0	33944	
4393	0	33568	
4394	0	32808	
4395	0	33156	
4396	0	32928	
4397	0	31964	
4398	0	32188	
4399	0	32964	
4400	0	33608	
4401	0	33824	
4402	0	33280	
4403	0	32660	
4404	0	33092	
4405	0	33264	
4406	0	32548	
4407	0	31696	
4408	0	31244	
4409	0	32088	
4410	0	32885	
4411	0	32992	
4412	0	33176	
4413	0	33209	
4414	0	33104	
4415	0	33016	
4416	0	32976	
4417	0	32446	
4418	0	31756	
4419	0	31916	
4420	0	32936	
4421	0	32932	
4422	0	32744	
4423	0	32924	
4424	0	33504	
4425	0	33264	
4426	0	32728	
4427	0	32118	
4428	0	31788	
4429	0	32284	
4430	0	32600	
4431	0	32704	
4432	0	33196	
4433	0	33253	
4434	0	33328	
4435	0	33408	
4436	0	32932	
4437	0	32220	
4438	0	32052	
4439	0	31852	
4440	0	32228	
4441	0	32668	
4442	0	33516	
4443	0	33616	
4444	0	33380	
4445	0	33048	
4446	0	32740	
4447	0	32260	
4448	0	31888	
4449	0	32356	
4450	0	32564	
4451	0	32852	
4452	0	32932	
4453	0	33308	
4454	0	33628	
4455	0	33070	
4456	0	32724	
4457	0	32076	
4458	0	31660	
4459	0	31668	
4460	0	32284	
4461	0	32732	
4462	0	33356	
4463	0	33464	
4464	0	33520	
4465	0	33388	
4466	0	33120	
4467	0	31936	
4468	0	31641	
4469	0	31976	
4470	0	32868	
4471	0	33204	
4472	0	33064	
4473	0	33220	
4474	0	33568	
4475	0	33508	
4476	0	33252	
4477	0	32540	
4478	0	31984	
4479	0	31976	
4480	0	32304	
4481	0	32596	
4482	0	33160	
4483	0	33324	
4484	0	33460	
4485	0	33240	
4486	0	32680	
4487	0	32232	
4488	0	31928	
4489	0	32152	
4490	0	32692	
4491	0	32816	
4492	0	32960	
4493	0	33264	
4494	0	33436	
4495	0	33168	
4496	0	32732	
4497	0	32294	
4498	0	31981	
4499	0	31888	
4500	0	32412	
4501	0	32578	
4502	0	33012	
4503	0	33428	
4504	0	33573	
4505	0	33432	
4506	0	32736	
4507	0	32336	
4508	0	31996	
4509	0	32204	
4510	0	32696	
4511	0	32832	
4512	0	33153	
4513	0	33352	
4514	0	33488	
4515	0	33292	
4516	0	32609	
4517	0	31816	
4518	0	31496	
4519	0	31837	
4520	0	32700	
4521	0	33200	
4522	0	33384	
4523	0	33668	
4524	0	33752	
4525	0	33436	
4526	0	32652	
4527	0	32064	
4528	0	31708	
4529	0	32156	
4530	0	32676	
4531	0	32984	
4532	0	33028	
4533	0	33256	
4534	0	33300	
4535	0	33368	
4536	0	32808	
4537	0	32396	
4538	0	31854	
4539	0	32092	
4540	0	32598	
4541	0	32796	
4542	0	33004	
4543	0	33470	
4544	0	33600	
4545	0	33512	
4546	0	32852	
4547	0	32288	
4548	0	31620	
4549	0	31798	
4550	0	32592	
4551	0	33140	
4552	0	33335	
4553	0	33472	
4554	0	33472	
4555	0	33197	
4556	0	32548	
4557	0	32000	
4558	0	31768	
4559	0	32000	
4560	0	32788	
4561	0	32816	
4562	0	33088	
4563	0	33325	
4564	0	33428	
4565	0	33516	
4566	0	32904	
4567	0	32228	
4568	0	31788	
4569	0	32044	
4570	0	32572	
4571	0	32940	
4572	0	33236	
4573	0	33220	
4574	0	33028	
4575	0	32996	
4576	0	32712	
4577	0	32361	
4578	0	31816	
4579	0	32148	
4580	0	32680	
4581	0	32848	
4582	0	33036	
4583	0	33244	
4584	0	33572	
4585	0	33412	
4586	0	32976	
4587	0	32516	
4588	0	31880	
4589	0	31988	
4590	0	32460	
4591	0	33024	
4592	0	33185	
4593	0	33364	
4594	0	33501	
4595	0	33148	
4596	0	32772	
4597	0	32116	
4598	0	31727	
4599	0	32096	
4600	0	32670	
4601	0	32980	
4602	0	33036	
4603	0	33252	
4604	0	33532	
4605	0	33096	
4606	0	32928	
4607	0	32532	
4608	0	31881	
4609	0	32096	
4610	0	32424	
4611	0	32812	
4612	0	33212	
4613	0	33345	
4614	0	33564	
4615	0	33272	
4616	0	32656	
4617	0	32056	
4618	0	31568	
4619	0	32072	
4620	0	32592	
4621	0	33100	
4622	0	33296	
4623	0	33208	
4624	0	33328	
4625	0	33412	
4626	0	32824	
4627	0	32206	
4628	0	31592	
4629	0	32056	
4630	0	32712	
4631	0	32988	
4632	0	33156	
4633	0	33156	
4634	0	33620	
4635	0	33424	
4636	0	32880	
4637	0	32168	
4638	0	31796	
4639	0	31860	
4640	0	32556	
4641	0	32856	
4642	0	33260	
4643	0	33492	
4644	0	33560	
4645	0	33428	
4646	0	33004	
4647	0	32200	
4648	0	31752	
4649	0	32084	
4650	0	32652	
4651	0	32940	
4652	0	33184	
4653	0	33224	
4654	0	33473	
4655	0	33404	
4656	0	32792	
4657	0	31952	
4658	0	31812	
4659	0	32048	
4660	0	32672	
4661	0	32660	
4662	0	33224	
4663	0	33584	
4664	0	33596	
4665	0	33192	
4666	0	32904	
4667	0	32104	
4668	0	31684	
4669	0	31880	
4670	0	32484	
4671	0	32616	
4672	0	33160	
4673	0	33352	
4674	0	33496	
4675	0	33300	
4676	0	32889	
4677	0	32324	
4678	0	31648	
4679	0	32048	
4680	0	32784	
4681	0	32888	
4682	0	33132	
4683	0	33244	
4684	0	33220	
4685	0	33596	
4686	0	33260	
4687	0	32512	
4688	0	31873	
4689	0	31876	
4690	0	32352	
4691	0	32712	
4692	0	33216	
4693	0	33476	
4694	0	33561	
4695	0	33286	
4696	0	32808	
4697	0	32126	
4698	0	31580	
4699	0	31960	
4700	0	32664	
4701	0	33004	
4702	0	33056	
4703	0	33524	
4704	0	33576	
4705	0	33140	
4706	0	32696	
4707	0	31958	
4708	0	31608	
4709	0	32080	
4710	0	32582	
4711	0	32872	
4712	0	33088	
4713	0	33260	
4714	0	33360	
4715	0	33468	
4716	0	32976	
4717	0	32148	
4718	0	31726	
4719	0	31861	
4720	0	32620	
4721	0	33008	
4722	0	33060	
4723	0	33156	
4724	0	33676	
4725	0	33468	
4726	0	32892	
4727	0	32404	
4728	0	31820	
4729	0	32036	
4730	0	32480	
4731	0	32812	
4732	0	33188	
4733	0	33396	
4734	0	33592	
4735	0	33336	
4736	0	32909	
4737	0	32176	
4738	0	31700	
4739	0	32144	
4740	0	32496	
4741	0	32508	
4742	0	33085	
4743	0	33588	
4744	0	33648	
4745	0	33408	
4746	0	32904	
4747	0	32128	
4748	0	31716	
4749	0	31912	
4750	0	32572	
4751	0	32988	
4752	0	33204	
4753	0	33352	
4754	0	33444	
4755	0	33312	
4756	0	32848	
4757	0	32008	
4758	0	31848	
4759	0	32036	
4760	0	32592	
4761	0	32736	
4762	0	33114	
4763	0	33284	
4764	0	33500	
4765	0	33456	
4766	0	32860	
4767	0	32176	
4768	0	31904	
4769	0	32140	
4770	0	32596	
4771	0	32900	
4772	0	33136	
4773	0	33356	
4774	0	33548	
4775	0	33308	
4776	0	32897	
4777	0	32096	
4778	0	31838	
4779	0	32057	
4780	0	32624	
4781	0	32948	
4782	0	33168	
4783	0	33276	
4784	0	33468	
4785	0	33272	
4786	0	32700	
4787	0	31997	
4788	0	31704	
4789	0	32204	
4790	0	32644	
4791	0	32996	
4792	0	33196	
4793	0	33296	
4794	0	33518	
4795	0	33568	
4796	0	33004	
4797	0	31936	
4798	0	31592	
4799	0	32016	
4800	0	32620	
4801	0	33092	
4802	0	33176	
4803	0	33288	
4804	0	33664	
4805	0	33260	
4806	0	32748	
4807	0	31984	
4808	0	31848	
4809	0	32020	
4810	0	32580	
4811	0	32804	
4812	0	33192	
4813	0	33384	
4814	0	33648	
4815	0	33276	
4816	0	32908	
4817	0	32240	
4818	0	31808	
4819	0	31964	
4820	0	32432	
4821	0	32740	
4822	0	33172	
4823	0	33428	
4824	0	33596	
4825	0	33324	
4826	0	32912	
4827	0	32172	
4828	0	31930	
4829	0	32064	
4830	0	32412	
4831	0	32884	
4832	0	33288	
4833	0	33204	
4834	0	33436	
4835	0	33296	
4836	0	32864	
4837	0	31860	
4838	0	31828	
4839	0	32020	
4840	0	32529	
4841	0	33092	
4842	0	33316	
4843	0	33340	
4844	0	33236	
4845	0	33508	
4846	0	32968	
4847	0	32136	
4848	0	31960	
4849	0	31908	
4850	0	32552	
4851	0	32896	
4852	0	33128	
4853	0	33280	
4854	0	33160	
4855	0	33348	
4856	0	32660	
4857	0	32252	
4858	0	31936	
4859	0	32128	
4860	0	32836	
4861	0	32728	
4862	0	33036	
4863	0	33364	
4864	0	33384	
4865	0	33302	
4866	0	32844	
4867	0	32165	
4868	0	31716	
4869	0	32158	
4870	0	32668	
4871	0	32736	
4872	0	33204	
4873	0	33528	
4874	0	33676	
4875	0	33332	
4876	0	32644	
4877	0	32088	
4878	0	31572	
4879	0	32101	
4880	0	32732	
4881	0	32830	
4882	0	32916	
4883	0	33376	
4884	0	33636	
4885	0	33160	
4886	0	32692	
4887	0	32132	
4888	0	31772	
4889	0	31989	
4890	0	32792	
4891	0	32852	
4892	0	33316	
4893	0	33432	
4894	0	33544	
4895	0	33368	
4896	0	32660	
4897	0	32100	
4898	0	31981	
4899	0	32032	
4900	0	32344	
4901	0	32868	
4902	0	33292	
4903	0	33236	
4904	0	33436	
4905	0	33300	
4906	0	32864	
4907	0	32208	
4908	0	31844	
4909	0	31972	
4910	0	32780	
4911	0	32912	
4912	0	33488	
4913	0	33524	
4914	0	33628	
4915	0	33292	
4916	0	32900	
4917	0	32153	
4918	0	31584	
4919	0	32048	
4920	0	32548	
4921	0	32844	
4922	0	33156	
4923	0	33428	
4924	0	33460	
4925	0	33340	
4926	0	32800	
4927	0	32204	
4928	0	31872	
4929	0	32040	
4930	0	32540	
4931	0	32921	
4932	0	33184	
4933	0	33236	
4934	0	33417	
4935	0	33308	
4936	0	32820	
4937	0	32008	
4938	0	31677	
4939	0	32076	
4940	0	32704	
4941	0	32879	
4942	0	33228	
4943	0	33396	
4944	0	33512	
4945	0	33352	
4946	0	32876	
4947	0	32060	
4948	0	31876	
4949	0	32108	
4950	0	32529	
4951	0	32952	
4952	0	33184	
4953	0	33312	
4954	0	33356	
4955	0	33127	
4956	0	33137	
4957	0	32436	
4958	0	32000	
4959	0	32148	
4960	0	32412	
4961	0	32864	
4962	0	32996	
4963	0	33206	
4964	0	33576	
4965	0	33476	
4966	0	32676	
4967	0	32116	
4968	0	31764	
4969	0	32068	
4970	0	32264	
4971	0	32780	
4972	0	33157	
4973	0	33196	
4974	0	33416	
4975	0	33413	
4976	0	33020	
4977	0	32028	
4978	0	31928	
4979	0	32256	
4980	0	32776	
4981	0	32852	
4982	0	33352	
4983	0	33367	
4984	0	33430	
4985	0	33464	
4986	0	32860	
4987	0	32176	
4988	0	31864	
4989	0	31828	
4990	0	32436	
4991	0	32968	
4992	0	33244	
4993	0	33184	
4994	0	33448	
4995	0	33480	
4996	0	32864	
4997	0	32124	
4998	0	31772	
4999	0	31876	
5000	0	32504	
5001	0	32848	
5002	0	33084	
5003	0	33465	
5004	0	33589	
5005	0	33412	
5006	0	32948	
5007	0	32288	
5008	0	31856	
5009	0	32184	
5010	0	32566	
5011	0	32828	
5012	0	33272	
5013	0	33196	
5014	0	33424	
5015	0	33400	
5016	0	32716	
5017	0	32174	
5018	0	31860	
5019	0	32009	
5020	0	32560	
5021	0	32972	
5022	0	33196	
5023	0	33364	
5024	0	33404	
5025	0	33348	
5026	0	32852	
5027	0	32080	
5028	0	31792	
5029	0	31872	
5030	0	32692	
5031	0	32966	
5032	0	33092	
5033	0	33256	
5034	0	33468	
5035	0	33504	
5036	0	32924	
5037	0	32068	
5038	0	31732	
5039	0	32026	
5040	0	32568	
5041	0	32872	
5042	0	33324	
5043	0	33288	
5044	0	33404	
5045	0	33288	
5046	0	32812	
5047	0	32198	
5048	0	31976	
5049	0	32008	
5050	0	32572	
5051	0	32944	
5052	0	33193	
5053	0	33216	
5054	0	33560	
5055	0	33260	
5056	0	32596	
5057	0	32092	
5058	0	31976	
5059	0	32144	
5060	0	32560	
5061	0	32904	
5062	0	33316	
5063	0	33400	
5064	0	33360	
5065	0	33296	
5066	0	33016	
5067	0	32080	
5068	0	31624	
5069	0	31961	
5070	0	32640	
5071	0	32944	
5072	0	33188	
5073	0	33472	
5074	0	33752	
5075	0	33276	
5076	0	32604	
5077	0	31964	
5078	0	31872	
5079	0	32200	
5080	0	32548	
5081	0	32921	
5082	0	33336	
5083	0	33368	
5084	0	33356	
5085	0	33148	
5086	0	32860	
5087	0	32046	
5088	0	31708	
5089	0	32020	
5090	0	32500	
5091	0	33052	
5092	0	33172	
5093	0	33428	
5094	0	33780	
5095	0	33424	
5096	0	32733	
5097	0	31920	
5098	0	31720	
5099	0	32214	
5100	0	32613	
5101	0	32948	
5102	0	33264	
5103	0	33444	
5104	0	33524	
5105	0	33472	
5106	0	32952	
5107	0	32048	
5108	0	31844	
5109	0	31936	
5110	0	32744	
5111	0	32956	
5112	0	33160	
5113	0	33312	
5114	0	33488	
5115	0	33156	
5116	0	32796	
5117	0	32184	
5118	0	31756	
5119	0	32160	
5120	0	32704	
5121	0	32904	
5122	0	33220	
5123	0	33188	
5124	0	33496	
5125	0	33260	
5126	0	32668	
5127	0	32060	
5128	0	31752	
5129	0	32064	
5130	0	32652	
5131	0	32960	
5132	0	33185	
5133	0	33300	
5134	0	33548	
5135	0	33304	
5136	0	32792	
5137	0	32200	
5138	0	31918	
5139	0	32164	
5140	0	32488	
5141	0	33052	
5142	0	33200	
5143	0	33328	
5144	0	33376	
5145	0	33268	
5146	0	32720	
5147	0	32157	
5148	0	31708	
5149	0	31968	
5150	0	32544	
5151	0	33048	
5152	0	33268	
5153	0	33476	
5154	0	33692	
5155	0	33452	
5156	0	32848	
5157	0	32244	
5158	0	31644	
5159	0	31904	
5160	0	32536	
5161	0	32970	
5162	0	33144	
5163	0	33268	
5164	0	33340	
5165	0	33316	
5166	0	32696	
5167	0	32276	
5168	0	31994	
5169	0	31892	
5170	0	32504	
5171	0	32764	
5172	0	33268	
5173	0	33397	
5174	0	33438	
5175	0	33348	
5176	0	32813	
5177	0	32184	
5178	0	31764	
5179	0	32180	
5180	0	32816	
5181	0	32884	
5182	0	33152	
5183	0	33188	
5184	0	33356	
5185	0	33332	
5186	0	32932	
5187	0	32168	
5188	0	31788	
5189	0	31796	
5190	0	32418	
5191	0	33008	
5192	0	33461	
5193	0	33444	
5194	0	33524	
5195	0	33229	
5196	0	32684	
5197	0	32240	
5198	0	31770	
5199	0	32020	
5200	0	32568	
5201	0	32664	
5202	0	33408	
5203	0	33536	
5204	0	33816	
5205	0	33308	
5206	0	32600	
5207	0	31820	
5208	0	31592	
5209	0	32066	
5210	0	32756	
5211	0	33048	
5212	0	33416	
5213	0	33344	
5214	0	33572	
5215	0	33616	
5216	0	32604	
5217	0	31648	
5218	0	31324	
5219	0	31888	
5220	0	32704	
5221	0	33032	
5222	0	33376	
5223	0	33672	
5224	0	33804	
5225	0	33580	
5226	0	32776	
5227	0	31508	
5228	0	31508	
5229	0	31772	
5230	0	32765	
5231	0	33201	
5232	0	33468	
5233	0	33600	
5234	0	33832	
5235	0	33444	
5236	0	32708	
5237	0	31772	
5238	0	31328	
5239	0	31777	
5240	0	32674	
5241	0	33096	
5242	0	33388	
5243	0	33568	
5244	0	33908	
5245	0	33396	
5246	0	32708	
5247	0	31737	
5248	0	31528	
5249	0	31900	
5250	0	32676	
5251	0	33132	
5252	0	33404	
5253	0	33384	
5254	0	33580	
5255	0	33212	
5256	0	32548	
5257	0	31960	
5258	0	31784	
5259	0	32140	
5260	0	32684	
5261	0	32932	
5262	0	33248	
5263	0	33460	
5264	0	33668	
5265	0	33436	
5266	0	32776	
5267	0	32064	
5268	0	31680	
5269	0	32144	
5270	0	32696	
5271	0	32924	
5272	0	33277	
5273	0	33384	
5274	0	33348	
5275	0	33320	
5276	0	32964	
5277	0	32292	
5278	0	31860	
5279	0	31908	
5280	0	32464	
5281	0	32840	
5282	0	33368	
5283	0	33261	
5284	0	33408	
5285	0	33436	
5286	0	32724	
5287	0	32220	
5288	0	31831	
5289	0	31876	
5290	0	32608	
5291	0	33052	
5292	0	33180	
5293	0	33272	
5294	0	33504	
5295	0	33336	
5296	0	32720	
5297	0	32181	
5298	0	31704	
5299	0	32068	
5300	0	32564	
5301	0	32996	
5302	0	33182	
5303	0	33240	
5304	0	33472	
5305	0	33337	
5306	0	32848	
5307	0	32272	
5308	0	31832	
5309	0	31820	
5310	0	32680	
5311	0	32846	
5312	0	33264	
5313	0	33376	
5314	0	33532	
5315	0	33360	
5316	0	32776	
5317	0	32136	
5318	0	31984	
5319	0	32164	
5320	0	32504	
5321	0	32924	
5322	0	33124	
5323	0	33440	
5324	0	33516	
5325	0	33348	
5326	0	32952	
5327	0	32204	
5328	0	31608	
5329	0	31912	
5330	0	32594	
5331	0	33017	
5332	0	33144	
5333	0	33380	
5334	0	33416	
5335	0	33380	
5336	0	32972	
5337	0	32033	
5338	0	31920	
5339	0	32096	
5340	0	32656	
5341	0	33004	
5342	0	33232	
5343	0	33420	
5344	0	33321	
5345	0	33348	
5346	0	32900	
5347	0	32048	
5348	0	31924	
5349	0	31916	
5350	0	32473	
5351	0	32744	
5352	0	33252	
5353	0	33444	
5354	0	33568	
5355	0	33409	
5356	0	33020	
5357	0	32180	
5358	0	31798	
5359	0	31944	
5360	0	32376	
5361	0	32816	
5362	0	33116	
5363	0	33460	
5364	0	33396	
5365	0	33328	
5366	0	32812	
5367	0	32262	
5368	0	31912	
5369	0	31885	
5370	0	32654	
5371	0	32892	
5372	0	33120	
5373	0	33296	
5374	0	33537	
5375	0	33556	
5376	0	32788	
5377	0	32172	
5378	0	31772	
5379	0	32024	
5380	0	32612	
5381	0	32912	
5382	0	33292	
5383	0	33409	
5384	0	33328	
5385	0	33420	
5386	0	32852	
5387	0	32132	
5388	0	31788	
5389	0	32105	
5390	0	32517	
5391	0	32980	
5392	0	33280	
5393	0	33392	
5394	0	33381	
5395	0	33392	
5396	0	32788	
5397	0	32276	
5398	0	31820	
5399	0	32068	
5400	0	32420	
5401	0	32828	
5402	0	33200	
5403	0	33461	
5404	0	33396	
5405	0	33492	
5406	0	33032	
5407	0	32220	
5408	0	31848	
5409	0	32012	
5410	0	32600	
5411	0	32752	
5412	0	33144	
5413	0	33208	
5414	0	33348	
5415	0	33392	
5416	0	32744	
5417	0	32200	
5418	0	31876	
5419	0	32032	
5420	0	32592	
5421	0	32837	
5422	0	33300	
5423	0	33502	
5424	0	33412	
5425	0	33340	
5426	0	32904	
5427	0	32132	
5428	0	31836	
5429	0	31924	
5430	0	32466	
5431	0	32828	
5432	0	33124	
5433	0	33256	
5434	0	33452	
5435	0	33404	
5436	0	32784	
5437	0	32128	
5438	0	32052	
5439	0	32020	
5440	0	32672	
5441	0	32909	
5442	0	33161	
5443	0	33260	
5444	0	33484	
5445	0	33351	
5446	0	32860	
5447	0	32176	
5448	0	32044	
5449	0	32052	
5450	0	32472	
5451	0	32796	
5452	0	33164	
5453	0	33340	
5454	0	33632	
5455	0	33368	
5456	0	32960	
5457	0	32224	
5458	0	32040	
5459	0	31877	
5460	0	32357	
5461	0	32884	
5462	0	33068	
5463	0	33191	
5464	0	33360	
5465	0	33541	
5466	0	32960	
5467	0	32000	
5468	0	31760	
5469	0	32012	
5470	0	32540	
5471	0	32863	
5472	0	33248	
5473	0	33332	
5474	0	33468	
5475	0	33486	
5476	0	33028	
5477	0	32284	
5478	0	32028	
5479	0	32028	
5480	0	32596	
5481	0	32716	
5482	0	33300	
5483	0	33384	
5484	0	33536	
5485	0	33357	
5486	0	32844	
5487	0	31936	
5488	0	31672	
5489	0	31850	
5490	0	32292	
5491	0	33108	
5492	0	33432	
5493	0	33492	
5494	0	33576	
5495	0	33588	
5496	0	32720	
5497	0	31976	
5498	0	31752	
5499	0	32052	
5500	0	32732	
5501	0	33000	
5502	0	33176	
5503	0	33284	
5504	0	33461	
5505	0	33404	
5506	0	32656	
5507	0	31797	
5508	0	31813	
5509	0	31968	
5510	0	32756	
5511	0	33028	
5512	0	33276	
5513	0	33428	
5514	0	33576	
5515	0	33608	
5516	0	32912	
5517	0	31854	
5518	0	31592	
5519	0	31780	
5520	0	32770	
5521	0	33120	
5522	0	33416	
5523	0	33436	
5524	0	33420	
5525	0	33460	
5526	0	32792	
5527	0	31814	
5528	0	31592	
5529	0	31790	
5530	0	32728	
5531	0	32992	
5532	0	33504	
5533	0	33396	
5534	0	33628	
5535	0	33660	
5536	0	32970	
5537	0	31652	
5538	0	31420	
5539	0	31773	
5540	0	32680	
5541	0	33136	
5542	0	33380	
5543	0	33461	
5544	0	33676	
5545	0	33752	
5546	0	32676	
5547	0	31648	
5548	0	31488	
5549	0	31760	
5550	0	32780	
5551	0	33176	
5552	0	33320	
5553	0	33552	
5554	0	33688	
5555	0	33544	
5556	0	32806	
5557	0	31732	
5558	0	31364	
5559	0	31924	
5560	0	32760	
5561	0	33140	
5562	0	33264	
5563	0	33360	
5564	0	33508	
5565	0	33453	
5566	0	32696	
5567	0	31738	
5568	0	31700	
5569	0	31968	
5570	0	32756	
5571	0	33144	
5572	0	33332	
5573	0	33292	
5574	0	33556	
5575	0	33260	
5576	0	32748	
5577	0	32072	
5578	0	31700	
5579	0	31876	
5580	0	32536	
5581	0	32960	
5582	0	33332	
5583	0	33416	
5584	0	33464	
5585	0	33272	
5586	0	32924	
5587	0	32332	
5588	0	31977	
5589	0	31861	
5590	0	32436	
5591	0	32832	
5592	0	33196	
5593	0	33456	
5594	0	33672	
5595	0	33480	
5596	0	32857	
5597	0	31988	
5598	0	31804	
5599	0	31924	
5600	0	32488	
5601	0	32816	
5602	0	33032	
5603	0	33224	
5604	0	33480	
5605	0	33566	
5606	0	33028	
5607	0	32316	
5608	0	31892	
5609	0	32040	
5610	0	32356	
5611	0	32744	
5612	0	33116	
5613	0	33492	
5614	0	33412	
5615	0	33372	
5616	0	32868	
5617	0	32156	
5618	0	31924	
5619	0	31820	
5620	0	32380	
5621	0	32868	
5622	0	33148	
5623	0	33432	
5624	0	33524	
5625	0	33453	
5626	0	32776	
5627	0	32156	
5628	0	32052	
5629	0	32092	
5630	0	32480	
5631	0	32944	
5632	0	33120	
5633	0	33256	
5634	0	33332	
5635	0	33376	
5636	0	32952	
5637	0	32488	
5638	0	32088	
5639	0	31992	
5640	0	32364	
5641	0	32760	
5642	0	33052	
5643	0	33304	
5644	0	33560	
5645	0	33444	
5646	0	32948	
5647	0	32132	
5648	0	31836	
5649	0	32172	
5650	0	32484	
5651	0	32796	
5652	0	33252	
5653	0	33452	
5654	0	33516	
5655	0	33340	
5656	0	33016	
5657	0	32160	
5658	0	31892	
5659	0	31828	
5660	0	32476	
5661	0	32892	
5662	0	33112	
5663	0	33304	
5664	0	33449	
5665	0	33516	
5666	0	32832	
5667	0	32192	
5668	0	31984	
5669	0	31852	
5670	0	32432	
5671	0	32952	
5672	0	33184	
5673	0	33224	
5674	0	33524	
5675	0	33500	
5676	0	32896	
5677	0	32152	
5678	0	31868	
5679	0	31980	
5680	0	32560	
5681	0	32640	
5682	0	33204	
5683	0	33264	
5684	0	33696	
5685	0	33568	
5686	0	32920	
5687	0	32228	
5688	0	31904	
5689	0	31952	
5690	0	32568	
5691	0	32968	
5692	0	33101	
5693	0	33188	
5694	0	33384	
5695	0	33552	
5696	0	32860	
5697	0	32268	
5698	0	31900	
5699	0	32052	
5700	0	32308	
5701	0	32780	
5702	0	33184	
5703	0	33444	
5704	0	33488	
5705	0	33548	
5706	0	32808	
5707	0	32128	
5708	0	32044	
5709	0	31976	
5710	0	32604	
5711	0	32908	
5712	0	33128	
5713	0	33284	
5714	0	33352	
5715	0	33422	
5716	0	32884	
5717	0	32220	
5718	0	31768	
5719	0	32164	
5720	0	32596	
5721	0	32784	
5722	0	33164	
5723	0	33268	
5724	0	33452	
5725	0	33372	
5726	0	32956	
5727	0	32308	
5728	0	31825	
5729	0	32000	
5730	0	32548	
5731	0	32748	
5732	0	33266	
5733	0	33212	
5734	0	33428	
5735	0	33564	
5736	0	32916	
5737	0	32412	
5738	0	31880	
5739	0	32164	
5740	0	32544	
5741	0	32680	
5742	0	33096	
5743	0	33224	
5744	0	33472	
5745	0	33461	
5746	0	32888	
5747	0	32396	
5748	0	32004	
5749	0	31992	
5750	0	32400	
5751	0	32760	
5752	0	33300	
5753	0	33350	
5754	0	33540	
5755	0	33480	
5756	0	32713	
5757	0	32208	
5758	0	31908	
5759	0	32017	
5760	0	32488	
5761	0	32824	
5762	0	33056	
5763	0	33152	
5764	0	33454	
5765	0	33412	
5766	0	32984	
5767	0	32484	
5768	0	31940	
5769	0	31836	
5770	0	32468	
5771	0	32760	
5772	0	33184	
5773	0	33356	
5774	0	33544	
5775	0	33512	
5776	0	32896	
5777	0	32220	
5778	0	31950	
5779	0	31920	
5780	0	32506	
5781	0	32864	
5782	0	33264	
5783	0	33084	
5784	0	33272	
5785	0	33600	
5786	0	32785	
5787	0	32128	
5788	0	31956	
5789	0	32148	
5790	0	32648	
5791	0	32848	
5792	0	33052	
5793	0	33482	
5794	0	33568	
5795	0	33460	
5796	0	32772	
5797	0	32260	
5798	0	31944	
5799	0	31952	
5800	0	32408	
5801	0	32864	
5802	0	33148	
5803	0	33160	
5804	0	33592	
5805	0	33600	
5806	0	32800	
5807	0	32100	
5808	0	32112	
5809	0	31860	
5810	0	32351	
5811	0	32968	
5812	0	33133	
5813	0	33300	
5814	0	33325	
5815	0	33420	
5816	0	32814	
5817	0	32272	
5818	0	31952	
5819	0	31776	
5820	0	32648	
5821	0	32716	
5822	0	33072	
5823	0	33305	
5824	0	33557	
5825	0	33664	
5826	0	32805	
5827	0	32150	
5828	0	32064	
5829	0	32008	
5830	0	32436	
5831	0	32912	
5832	0	33270	
5833	0	33244	
5834	0	33356	
5835	0	33408	
5836	0	32748	
5837	0	32204	
5838	0	31964	
5839	0	31748	
5840	0	32536	
5841	0	32860	
5842	0	33184	
5843	0	33392	
5844	0	33423	
5845	0	33424	
5846	0	32909	
5847	0	32192	
5848	0	31832	
5849	0	32025	
5850	0	32488	
5851	0	32808	
5852	0	33188	
5853	0	33340	
5854	0	33468	
5855	0	33368	
5856	0	32976	
5857	0	32204	
5858	0	31864	
5859	0	31828	
5860	0	32533	
5861	0	32948	
5862	0	33188	
5863	0	33380	
5864	0	33380	
5865	0	33486	
5866	0	33081	
5867	0	32200	
5868	0	31844	
5869	0	32236	
5870	0	32404	
5871	0	32888	
5872	0	33060	
5873	0	33272	
5874	0	33372	
5875	0	33436	
5876	0	32960	
5877	0	32116	
5878	0	31840	
5879	0	32024	
5880	0	32733	
5881	0	32748	
5882	0	32864	
5883	0	33156	
5884	0	33488	
5885	0	33612	
5886	0	32853	
5887	0	32224	
5888	0	32132	
5889	0	32070	
5890	0	32600	
5891	0	32700	
5892	0	33117	
5893	0	33454	
5894	0	33264	
5895	0	33460	
5896	0	32944	
5897	0	32276	
5898	0	31976	
5899	0	31928	
5900	0	32441	
5901	0	32846	
5902	0	33141	
5903	0	33264	
5904	0	33498	
5905	0	33396	
5906	0	32988	
5907	0	32260	
5908	0	32008	
5909	0	31908	
5910	0	32416	
5911	0	32732	
5912	0	33100	
5913	0	33376	
5914	0	33476	
5915	0	33484	
5916	0	32836	
5917	0	32128	
5918	0	32004	
5919	0	32110	
5920	0	32612	
5921	0	32964	
5922	0	33232	
5923	0	33380	
5924	0	33424	
5925	0	33328	
5926	0	32950	
5927	0	32188	
5928	0	31844	
5929	0	31860	
5930	0	32540	
5931	0	32880	
5932	0	33133	
5933	0	33084	
5934	0	33480	
5935	0	33576	
5936	0	33008	
5937	0	32212	
5938	0	31996	
5939	0	31936	
5940	0	32404	
5941	0	32924	
5942	0	33164	
5943	0	33140	
5944	0	33344	
5945	0	33472	
5946	0	33084	
5947	0	32186	
5948	0	32060	
5949	0	31896	
5950	0	32548	
5951	0	32812	
5952	0	33224	
5953	0	33200	
5954	0	33472	
5955	0	33484	
5956	0	33036	
5957	0	32084	
5958	0	31853	
5959	0	31888	
5960	0	32460	
5961	0	32964	
5962	0	33120	
5963	0	33145	
5964	0	33416	
5965	0	33624	
5966	0	33048	
5967	0	32285	
5968	0	31704	
5969	0	31704	
5970	0	32792	
5971	0	32868	
5972	0	33161	
5973	0	33416	
5974	0	33460	
5975	0	33380	
5976	0	32952	
5977	0	32216	
5978	0	31896	
5979	0	31960	
5980	0	32412	
5981	0	33088	
5982	0	33144	
5983	0	33336	
5984	0	33496	
5985	0	33336	
5986	0	32960	
5987	0	32248	
5988	0	31918	
5989	0	31916	
5990	0	32476	
5991	0	32962	
5992	0	33192	
5993	0	33396	
5994	0	33421	
5995	0	33113	
5996	0	32712	
5997	0	32068	
5998	0	32060	
5999	0	31897	
6000	0	32604	
6001	0	32908	
6002	0	33036	
6003	0	33456	
6004	0	33580	
6005	0	33516	
6006	0	32956	
6007	0	32320	
6008	0	31764	
6009	0	31900	
6010	0	32384	
6011	0	33056	
6012	0	33256	
6013	0	33264	
6014	0	33310	
6015	0	33540	
6016	0	33100	
6017	0	32236	
6018	0	31764	
6019	0	31964	
6020	0	32512	
6021	0	32940	
6022	0	33204	
6023	0	33368	
6024	0	33488	
6025	0	33348	
6026	0	32888	
6027	0	32272	
6028	0	31924	
6029	0	31820	
6030	0	32468	
6031	0	32856	
6032	0	33216	
6033	0	33332	
6034	0	33520	
6035	0	33484	
6036	0	32940	
6037	0	32076	
6038	0	31900	
6039	0	31984	
6040	0	32524	
6041	0	32932	
6042	0	33304	
6043	0	33412	
6044	0	33316	
6045	0	33468	
6046	0	33092	
6047	0	32244	
6048	0	31813	
6049	0	31844	
6050	0	32502	
6051	0	32740	
6052	0	33057	
6053	0	33285	
6054	0	33496	
6055	0	33440	
6056	0	33140	
6057	0	32160	
6058	0	31996	
6059	0	31996	
6060	0	32600	
6061	0	32636	
6062	0	33048	
6063	0	33264	
6064	0	33376	
6065	0	33456	
6066	0	33016	
6067	0	32244	
6068	0	31838	
6069	0	31696	
6070	0	32512	
6071	0	33044	
6072	0	33289	
6073	0	33274	
6074	0	33404	
6075	0	33416	
6076	0	33116	
6077	0	32232	
6078	0	31928	
6079	0	31924	
6080	0	32660	
6081	0	32908	
6082	0	33216	
6083	0	33188	
6084	0	33276	
6085	0	33423	
6086	0	33116	
6087	0	32256	
6088	0	32052	
6089	0	31892	
6090	0	32560	
6091	0	33040	
6092	0	33128	
6093	0	33289	
6094	0	33516	
6095	0	33485	
6096	0	32800	
6097	0	32120	
6098	0	31776	
6099	0	31840	
6100	0	32420	
6101	0	32980	
6102	0	33260	
6103	0	33244	
6104	0	33488	
6105	0	33492	
6106	0	33076	
6107	0	32225	
6108	0	31856	
6109	0	31948	
6110	0	32464	
6111	0	32736	
6112	0	33052	
6113	0	33112	
6114	0	33532	
6115	0	33472	
6116	0	32832	
6117	0	32292	
6118	0	32014	
6119	0	31948	
6120	0	32472	
6121	0	32944	
6122	0	33316	
6123	0	33148	
6124	0	33104	
6125	0	33422	
6126	0	33109	
6127	0	32544	
6128	0	31860	
6129	0	31828	
6130	0	32389	
6131	0	32928	
6132	0	33024	
6133	0	33176	
6134	0	33444	
6135	0	33444	
6136	0	33000	
6137	0	32309	
6138	0	32050	
6139	0	31904	
6140	0	32356	
6141	0	32828	
6142	0	33144	
6143	0	33208	
6144	0	33383	
6145	0	33401	
6146	0	32829	
6147	0	32172	
6148	0	31996	
6149	0	31952	
6150	0	32724	
6151	0	32948	
6152	0	33100	
6153	0	33296	
6154	0	33413	
6155	0	33396	
6156	0	32864	
6157	0	32276	
6158	0	32004	
6159	0	31980	
6160	0	32448	
6161	0	32868	
6162	0	33076	
6163	0	33293	
6164	0	33484	
6165	0	33516	
6166	0	33072	
6167	0	32268	
6168	0	31764	
6169	0	31848	
6170	0	32560	
6171	0	32928	
6172	0	33108	
6173	0	33390	
6174	0	33344	
6175	0	33467	
6176	0	32612	
6177	0	32148	
6178	0	32012	
6179	0	31864	
6180	0	32436	
6181	0	32920	
6182	0	33396	
6183	0	33468	
6184	0	33404	
6185	0	33456	
6186	0	33020	
6187	0	32160	
6188	0	31796	
6189	0	31988	
6190	0	32604	
6191	0	32896	
6192	0	33344	
6193	0	33310	
6194	0	33372	
6195	0	33468	
6196	0	32912	
6197	0	31980	
6198	0	31894	
6199	0	31844	
6200	0	32576	
6201	0	33004	
6202	0	33152	
6203	0	33100	
6204	0	33428	
6205	0	33454	
6206	0	32964	
6207	0	32224	
6208	0	31976	
6209	0	31968	
6210	0	32544	
6211	0	32832	
6212	0	33116	
6213	0	33248	
6214	0	33516	
6215	0	33500	
6216	0	32928	
6217	0	32296	
6218	0	31880	
6219	0	32020	
6220	0	32648	
6221	0	32928	
6222	0	33172	
6223	0	33304	
6224	0	33476	
6225	0	33412	
6226	0	33172	
6227	0	32188	
6228	0	31880	
6229	0	31700	
6230	0	32592	
6231	0	32992	
6232	0	33100	
6233	0	33194	
6234	0	33408	
6235	0	33460	
6236	0	33068	
6237	0	32180	
6238	0	31960	
6239	0	31908	
6240	0	32432	
6241	0	32936	
6242	0	33296	
6243	0	33312	
6244	0	33396	
6245	0	33480	
6246	0	33016	
6247	0	32400	
6248	0	31920	
6249	0	31845	
6250	0	32648	
6251	0	32856	
6252	0	33220	
6253	0	33304	
6254	0	33468	
6255	0	33268	
6256	0	32848	
6257	0	32301	
6258	0	31988	
6259	0	32069	
6260	0	32372	
6261	0	32756	
6262	0	33104	
6263	0	33292	
6264	0	33708	
6265	0	33368	
6266	0	32840	
6267	0	32269	
6268	0	31816	
6269	0	31860	
6270	0	32396	
6271	0	32764	
6272	0	33324	
6273	0	33308	
6274	0	33396	
6275	0	33532	
6276	0	32900	
6277	0	32148	
6278	0	31828	
6279	0	31992	
6280	0	32528	
6281	0	32876	
6282	0	33244	
6283	0	33097	
6284	0	33392	
6285	0	33440	
6286	0	33204	
6287	0	32304	
6288	0	31688	
6289	0	31888	
6290	0	32680	
6291	0	32984	
6292	0	33300	
6293	0	33208	
6294	0	33524	
6295	0	33540	
6296	0	32952	
6297	0	32092	
6298	0	31768	
6299	0	31997	
6300	0	32485	
6301	0	32852	
6302	0	33008	
6303	0	33260	
6304	0	33448	
6305	0	33440	
6306	0	32980	
6307	0	32364	
6308	0	31992	
6309	0	31893	
6310	0	32384	
6311	0	33061	
6312	0	33228	
6313	0	33220	
6314	0	33500	
6315	0	33460	
6316	0	32848	
6317	0	32276	
6318	0	31920	
6319	0	31996	
6320	0	32560	
6321	0	32872	
6322	0	33368	
6323	0	33290	
6324	0	33296	
6325	0	33412	
6326	0	32932	
6327	0	32056	
6328	0	32064	
6329	0	31900	
6330	0	32788	
6331	0	32860	
6332	0	33112	
6333	0	33182	
6334	0	33460	
6335	0	33484	
6336	0	32996	
6337	0	32124	
6338	0	31900	
6339	0	31872	
6340	0	32540	
6341	0	32844	
6342	0	33164	
6343	0	33365	
6344	0	33593	
6345	0	33445	
6346	0	32880	
6347	0	32172	
6348	0	31898	
6349	0	31856	
6350	0	32440	
6351	0	32904	
6352	0	33270	
6353	0	33276	
6354	0	33336	
6355	0	33288	
6356	0	32972	
6357	0	32213	
6358	0	31892	
6359	0	32044	
6360	0	32680	
6361	0	32892	
6362	0	33252	
6363	0	33216	
6364	0	33452	
6365	0	33532	
6366	0	32886	
6367	0	32236	
6368	0	31848	
6369	0	31820	
6370	0	32412	
6371	0	32696	
6372	0	33280	
6373	0	33376	
6374	0	33472	
6375	0	33392	
6376	0	32836	
6377	0	32248	
6378	0	32008	
6379	0	31944	
6380	0	32692	
6381	0	33012	
6382	0	33132	
6383	0	33381	
6384	0	33480	
6385	0	33368	
6386	0	32868	
6387	0	32404	
6388	0	31810	
6389	0	31880	
6390	0	32448	
6391	0	32652	
6392	0	33140	
6393	0	33380	
6394	0	33548	
6395	0	33388	
6396	0	33016	
6397	0	32196	
6398	0	31860	
6399	0	32004	
6400	0	32484	
6401	0	32857	
6402	0	33212	
6403	0	33428	
6404	0	33545	
6405	0	33420	
6406	0	32928	
6407	0	32108	
6408	0	31988	
6409	0	32168	
6410	0	32540	
6411	0	32748	
6412	0	33136	
6413	0	33396	
6414	0	33432	
6415	0	33356	
6416	0	32844	
6417	0	32088	
6418	0	31972	
6419	0	31952	
6420	0	32436	
6421	0	32904	
6422	0	33220	
6423	0	33548	
6424	0	33236	
6425	0	33372	
6426	0	32892	
6427	0	32304	
6428	0	31676	
6429	0	31916	
6430	0	32704	
6431	0	32884	
6432	0	33142	
6433	0	33272	
6434	0	33504	
6435	0	33360	
6436	0	32828	
6437	0	32132	
6438	0	31792	
6439	0	32020	
6440	0	32556	
6441	0	32740	
6442	0	33164	
6443	0	33368	
6444	0	33568	
6445	0	33340	
6446	0	32820	
6447	0	32224	
6448	0	31872	
6449	0	32068	
6450	0	32556	
6451	0	32684	
6452	0	33052	
6453	0	33336	
6454	0	33649	
6455	0	33496	
6456	0	33046	
6457	0	32208	
6458	0	31992	
6459	0	31943	
6460	0	32612	
6461	0	32832	
6462	0	33120	
6463	0	33328	
6464	0	33373	
6465	0	33376	
6466	0	32901	
6467	0	32080	
6468	0	31812	
6469	0	32032	
6470	0	32520	
6471	0	32868	
6472	0	33192	
6473	0	33244	
6474	0	33328	
6475	0	33396	
6476	0	32929	
6477	0	32280	
6478	0	31973	
6479	0	31925	
6480	0	32536	
6481	0	32832	
6482	0	33208	
6483	0	33316	
6484	0	33468	
6485	0	33317	
6486	0	32726	
6487	0	32136	
6488	0	31776	
6489	0	31924	
6490	0	32538	
6491	0	32964	
6492	0	33332	
6493	0	33312	
6494	0	33392	
6495	0	33320	
6496	0	32996	
6497	0	32220	
6498	0	31910	
6499	0	31852	
6500	0	32576	
6501	0	33036	
6502	0	33288	
6503	0	33364	
6504	0	33396	
6505	0	33436	
6506	0	32880	
6507	0	32116	
6508	0	31896	
6509	0	32032	
6510	0	32536	
6511	0	32872	
6512	0	33216	
6513	0	33165	
6514	0	33356	
6515	0	33540	
6516	0	33024	
6517	0	32164	
6518	0	31904	
6519	0	31940	
6520	0	32664	
6521	0	32820	
6522	0	33332	
6523	0	33268	
6524	0	33468	
6525	0	33412	
6526	0	32860	
6527	0	32156	
6528	0	31916	
6529	0	32168	
6530	0	32478	
6531	0	32766	
6532	0	33176	
6533	0	33232	
6534	0	33373	
6535	0	33361	
6536	0	32997	
6537	0	32208	
6538	0	31816	
6539	0	32052	
6540	0	32632	
6541	0	32764	
6542	0	33072	
6543	0	33336	
6544	0	33400	
6545	0	33212	
6546	0	32992	
6547	0	32270	
6548	0	32044	
6549	0	31912	
6550	0	32548	
6551	0	32832	
6552	0	33156	
6553	0	33264	
6554	0	33548	
6555	0	33508	
6556	0	32836	
6557	0	32165	
6558	0	31932	
6559	0	32052	
6560	0	32644	
6561	0	32740	
6562	0	33181	
6563	0	33260	
6564	0	33548	
6565	0	33496	
6566	0	32984	
6567	0	32112	
6568	0	31725	
6569	0	31952	
6570	0	32576	
6571	0	33012	
6572	0	33230	
6573	0	33236	
6574	0	33484	
6575	0	33396	
6576	0	32940	
6577	0	32104	
6578	0	31648	
6579	0	31856	
6580	0	32692	
6581	0	33028	
6582	0	33436	
6583	0	33564	
6584	0	33301	
6585	0	33248	
6586	0	32804	
6587	0	32200	
6588	0	31656	
6589	0	32098	
6590	0	32544	
6591	0	32828	
6592	0	33260	
6593	0	33384	
6594	0	33628	
6595	0	33332	
6596	0	32780	
6597	0	32108	
6598	0	31704	
6599	0	32040	
6600	0	32636	
6601	0	32972	
6602	0	33140	
6603	0	33300	
6604	0	33488	
6605	0	33180	
6606	0	32956	
6607	0	32320	
6608	0	31948	
6609	0	31988	
6610	0	32732	
6611	0	33024	
6612	0	33037	
6613	0	33252	
6614	0	33533	
6615	0	33056	
6616	0	32220	
6617	0	31880	
6618	0	31920	
6619	0	32113	
6620	0	33044	
6621	0	33161	
6622	0	33716	
6623	0	33060	
6624	0	32940	
6625	0	33252	
6626	0	32976	
6627	0	32650	
6628	0	32204	
6629	0	32616	
6630	0	32812	
6631	0	32652	
6632	0	31998	
6633	0	31896	
6634	0	31584	
6635	0	32640	
6636	0	32956	
6637	0	32832	
6638	0	31628	
6639	0	32479	
6640	0	33820	
6641	0	34304	
6642	0	32744	
6643	0	33308	
6644	0	33344	
6645	0	34348	
6646	0	34168	
6647	0	32956	
6648	0	32460	
6649	0	32400	
6650	0	32564	
6651	0	32376	
6652	0	32401	
6653	0	32364	
6654	0	32420	
6655	0	32804	
6656	0	33580	
6657	0	33908	
6658	0	34268	
6659	0	33452	
6660	0	33632	
6661	0	33326	
6662	0	31876	
6663	0	31896	
6664	0	32120	
6665	0	31816	
6666	0	32016	
6667	0	31804	
6668	0	31768	
6669	0	32020	
6670	0	32468	
6671	0	32964	
6672	0	32652	
6673	0	31884	
6674	0	31564	
6675	0	31732	
6676	0	32044	
6677	0	32556	
6678	0	33344	
6679	0	34380	
6680	0	35397	
6681	0	34464	
6682	0	34924	
6683	0	33676	
6684	0	33496	
6685	0	32612	
6686	0	31920	
6687	0	31452	
6688	0	32516	
6689	0	32222	
6690	0	32820	
6691	0	31141	
6692	0	31120	
6693	0	30966	
6694	0	30056	
6695	0	31172	
6696	0	30784	
6697	0	31236	
6698	0	33056	
6699	0	34777	
6700	0	35804	
6701	0	34308	
6702	0	35476	
6703	0	35352	
6704	0	34876	
6705	0	33884	
6706	0	32224	
6707	0	30373	
6708	0	30340	
6709	0	31336	
6710	0	32572	
6711	0	32856	
6712	0	32960	
6713	0	33204	
6714	0	33744	
6715	0	32332	
6716	0	32588	
6717	0	32016	
6718	0	32716	
6719	0	33120	
6720	0	31752	
6721	0	31612	
6722	0	33080	
6723	0	34612	
6724	0	34964	
6725	0	34732	
6726	0	32420	
6727	0	31716	
6728	0	31269	
6729	0	30860	
6730	0	31948	
6731	0	31296	
6732	0	32728	
6733	0	34700	
6734	0	36232	
6735	0	34221	
6736	0	30908	
6737	0	28860	
6738	0	32392	
6739	0	34672	
6740	0	35632	
6741	0	35144	
6742	0	35312	
6743	0	34396	
6744	0	34308	
6745	0	33308	
6746	0	31396	
6747	0	30500	
6748	0	30376	
6749	0	27380	
6750	0	29296	
6751	0	32112	
6752	0	33872	
6753	0	34761	
6754	0	34740	
6755	0	34353	
6756	0	33004	
6757	0	32016	
6758	0	31228	
6759	0	32096	
6760	0	32356	
6761	0	32808	
6762	0	33072	
6763	0	33104	
6764	0	29054	
6765	0	30256	
6766	0	32060	
6767	0	34892	
6768	0	36612	
6769	0	36694	
6770	0	33688	
6771	0	30760	
6772	0	29844	
6773	0	28604	
6774	0	33120	
6775	0	36736	
6776	0	31116	
6777	0	28512	
6778	0	30484	
6779	0	35192	
6780	0	40704	
6781	0	40752	
6782	0	36340	
6783	0	31068	
6784	0	28652	
6785	0	28500	
6786	0	28372	
6787	0	27249	
6788	0	28336	
6789	0	29716	
6790	0	31837	
6791	0	33444	
6792	0	34824	
6793	0	36664	
6794	0	36416	
6795	0	33588	
6796	0	32432	
6797	0	31080	
6798	0	31720	
6799	0	31680	
6800	0	32878	
6801	0	33684	
6802	0	33848	
6803	0	33696	
6804	0	35164	
6805	0	34508	
6806	0	34311	
6807	0	32892	
6808	0	32416	
6809	0	32744	
6810	0	33752	
6811	0	35172	
6812	0	34813	
6813	0	33908	
6814	0	33276	
6815	0	33068	
6816	0	31140	
6817	0	29496	
6818	0	29172	
6819	0	30830	
6820	0	34040	
6821	0	35680	
6822	0	36528	
6823	0	34984	
6824	0	34648	
6825	0	32860	
6826	0	30820	
6827	0	31886	
6828	0	30872	
6829	0	30900	
6830	0	32432	
6831	0	34692	
6832	0	34917	
6833	0	32722	
6834	0	32621	
6835	0	32576	
6836	0	31788	
6837	0	29924	
6838	0	30448	
6839	0	31900	
6840	0	33632	
6841	0	34592	
6842	0	34968	
6843	0	34405	
6844	0	34236	
6845	0	33312	
6846	0	31592	
6847	0	30056	
6848	0	30344	
6849	0	30816	
6850	0	31960	
6851	0	32396	
6852	0	32960	
6853	0	34112	
6854	0	34608	
6855	0	34352	
6856	0	32716	
6857	0	31300	
6858	0	30408	
6859	0	30856	
6860	0	33000	
6861	0	34252	
6862	0	33590	
6863	0	33981	
6864	0	34720	
6865	0	34296	
6866	0	32876	
6867	0	31840	
6868	0	31340	
6869	0	31758	
6870	0	32340	
6871	0	32528	
6872	0	33031	
6873	0	34000	
6874	0	34440	
6875	0	33564	
6876	0	33404	
6877	0	31532	
6878	0	31228	
6879	0	32412	
6880	0	33648	
6881	0	33692	
6882	0	33724	
6883	0	33660	
6884	0	34585	
6885	0	35448	
6886	0	32972	
6887	0	32372	
6888	0	32748	
6889	0	33496	
6890	0	35428	
6891	0	34497	
6892	0	34292	
6893	0	33404	
6894	0	32344	
6895	0	32164	
6896	0	30604	
6897	0	30592	
6898	0	29596	
6899	0	30400	
6900	0	31456	
6901	0	32408	
6902	0	33136	
6903	0	33030	
6904	0	33312	
6905	0	33772	
6906	0	33631	
6907	0	32292	
6908	0	31904	
6909	0	31988	
6910	0	32561	
6911	0	32671	
6912	0	33152	
6913	0	33512	
6914	0	34180	
6915	0	33652	
6916	0	32412	
6917	0	31216	
6918	0	30492	
6919	0	31092	
6920	0	32264	
6921	0	32728	
6922	0	33240	
6923	0	33408	
6924	0	33640	
6925	0	33444	
6926	0	32812	
6927	0	31548	
6928	0	30841	
6929	0	31572	
6930	0	32584	
6931	0	33148	
6932	0	33756	
6933	0	33864	
6934	0	34072	
6935	0	33740	
6936	0	32760	
6937	0	31404	
6938	0	30956	
6939	0	31336	
6940	0	32628	
6941	0	33120	
6942	0	33660	
6943	0	33600	
6944	0	33568	
6945	0	33360	
6946	0	32856	
6947	0	31300	
6948	0	31324	
6949	0	31816	
6950	0	33160	
6951	0	33156	
6952	0	34392	
6953	0	34452	
6954	0	34680	
6955	0	33304	
6956	0	32368	
6957	0	31025	
6958	0	30636	
6959	0	31192	
6960	0	32572	
6961	0	32900	
6962	0	31712	
6963	0	32724	
6964	0	34000	
6965	0	33908	
6966	0	33332	
6967	0	32956	
6968	0	32120	
6969	0	32296	
6970	0	32624	
6971	0	33101	
6972	0	33824	
6973	0	34024	
6974	0	33745	
6975	0	32608	
6976	0	31688	
6977	0	30341	
6978	0	29956	
6979	0	30380	
6980	0	32889	
6981	0	34008	
6982	0	34412	
6983	0	33933	
6984	0	34144	
6985	0	33729	
6986	0	32664	
6987	0	31560	
6988	0	31380	
6989	0	31556	
6990	0	32868	
6991	0	33480	
6992	0	33964	
6993	0	34008	
6994	0	33798	
6995	0	33404	
6996	0	32396	
6997	0	31704	
6998	0	31800	
6999	0	31990	
7000	0	33056	
7001	0	33256	
7002	0	33404	
7003	0	33612	
7004	0	33528	
7005	0	33528	
7006	0	32564	
7007	0	31696	
7008	0	31536	
7009	0	31520	
7010	0	32608	
7011	0	33549	
7012	0	33772	
7013	0	33500	
7014	0	34016	
7015	0	33476	
7016	0	33052	
7017	0	31796	
7018	0	31160	
7019	0	31504	
7020	0	32296	
7021	0	33360	
7022	0	33508	
7023	0	32948	
7024	0	33158	
7025	0	33588	
7026	0	32792	
7027	0	31576	
7028	0	31300	
7029	0	31360	
7030	0	32532	
7031	0	33292	
7032	0	33732	
7033	0	33900	
7034	0	33976	
7035	0	33836	
7036	0	32733	
7037	0	31172	
7038	0	31624	
7039	0	32012	
7040	0	32968	
7041	0	33100	
7042	0	33256	
7043	0	33364	
7044	0	33872	
7045	0	33600	
7046	0	32736	
7047	0	31452	
7048	0	30936	
7049	0	31544	
7050	0	32425	
7051	0	33081	
7052	0	34460	
7053	0	33948	
7054	0	34668	
7055	0	33897	
7056	0	32308	
7057	0	31340	
7058	0	31217	
7059	0	31260	
7060	0	32352	
7061	0	32772	
7062	0	33744	
7063	0	34264	
7064	0	34256	
7065	0	34112	
7066	0	33132	
7067	0	32464	
7068	0	32760	
7069	0	33020	
7070	0	34092	
7071	0	33328	
7072	0	31760	
7073	0	31592	
7074	0	32460	
7075	0	32928	
7076	0	32444	
7077	0	31316	
7078	0	31196	
7079	0	31256	
7080	0	32156	
7081	0	32756	
7082	0	33285	
7083	0	33944	
7084	0	34254	
7085	0	33192	
7086	0	32550	
7087	0	31312	
7088	0	31364	
7089	0	32148	
7090	0	33220	
7091	0	33600	
7092	0	33624	
7093	0	33708	
7094	0	34188	
7095	0	33814	
7096	0	32877	
7097	0	31168	
7098	0	30284	
7099	0	29852	
7100	0	31908	
7101	0	33188	
7102	0	32296	
7103	0	32644	
7104	0	34332	
7105	0	33828	
7106	0	32724	
7107	0	32984	
7108	0	33256	
7109	0	32316	
7110	0	33264	
7111	0	33764	
7112	0	33772	
7113	0	33728	
7114	0	34300	
7115	0	31040	
7116	0	29520	
7117	0	29948	
7118	0	32600	
7119	0	31456	
7120	0	29780	
7121	0	29200	
7122	0	31066	
7123	0	31892	
7124	0	31982	
7125	0	33988	
7126	0	33348	
7127	0	33528	
7128	0	33456	
7129	0	33656	
7130	0	34876	
7131	0	35716	
7132	0	35848	
7133	0	34028	
7134	0	33700	
7135	0	33884	
7136	0	33528	
7137	0	31716	
7138	0	31196	
7139	0	31373	
7140	0	31028	
7141	0	32480	
7142	0	29836	
7143	0	34080	
7144	0	38244	
7145	0	38636	
7146	0	38020	
7147	0	32796	
7148	0	30934	
7149	0	32252	
7150	0	34716	
7151	0	31596	
7152	0	29828	
7153	0	29984	
7154	0	32516	
7155	0	33957	
7156	0	34820	
7157	0	33584	
7158	0	31104	
7159	0	29548	
7160	0	31240	
7161	0	32196	
7162	0	30240	
7163	0	33912	
7164	0	36288	
7165	0	37372	
7166	0	34988	
7167	0	32644	
7168	0	30532	
7169	0	30156	
7170	0	29793	
7171	0	29360	
7172	0	30736	
7173	0	31972	
7174	0	33336	
7175	0	32712	
7176	0	33004	
7177	0	32456	
7178	0	31896	
7179	0	30889	
7180	0	32716	
7181	0	33000	
7182	0	31880	
7183	0	30904	
7184	0	32712	
7185	0	34948	
7186	0	36200	
7187	0	35020	
7188	0	33848	
7189	0	31980	
7190	0	32768	
7191	0	33084	
7192	0	31406	
7193	0	30560	
7194	0	33924	
7195	0	35324	
7196	0	37452	
7197	0	37180	
7198	0	34432	
7199	0	29572	
7200	0	31708	
7201	0	30976	
7202	0	30752	
7203	0	32775	
7204	0	34348	
7205	0	34656	
7206	0	33516	
7207	0	31544	
7208	0	29688	
7209	0	30172	
7210	0	31656	
7211	0	32388	
7212	0	33376	
7213	0	33876	
7214	0	34372	
7215	0	34004	
7216	0	33224	
7217	0	31956	
7218	0	31080	
7219	0	31240	
7220	0	32757	
7221	0	33416	
7222	0	33726	
7223	0	33860	
7224	0	33672	
7225	0	33624	
7226	0	33216	
7227	0	31524	
7228	0	31652	
7229	0	32104	
7230	0	32776	
7231	0	33064	
7232	0	33565	
7233	0	33524	
7234	0	33948	
7235	0	33548	
7236	0	32734	
7237	0	31480	
7238	0	31206	
7239	0	31548	
7240	0	33080	
7241	0	33636	
7242	0	33688	
7243	0	33397	
7244	0	33296	
7245	0	32872	
7246	0	32348	
7247	0	31440	
7248	0	30760	
7249	0	31768	
7250	0	34076	
7251	0	34266	
7252	0	34592	
7253	0	34472	
7254	0	34184	
7255	0	33334	
7256	0	31828	
7257	0	30744	
7258	0	30648	
7259	0	30764	
7260	0	32024	
7261	0	32796	
7262	0	33300	
7263	0	33844	
7264	0	33688	
7265	0	33838	
7266	0	32948	
7267	0	31400	
7268	0	30716	
7269	0	31308	
7270	0	32728	
7271	0	33120	
7272	0	33536	
7273	0	33496	
7274	0	33870	
7275	0	33744	
7276	0	33264	
7277	0	31884	
7278	0	31448	
7279	0	32064	
7280	0	33016	
7281	0	33324	
7282	0	33512	
7283	0	33732	
7284	0	33919	
7285	0	33396	
7286	0	32552	
7287	0	31044	
7288	0	30496	
7289	0	31392	
7290	0	33420	
7291	0	33576	
7292	0	33460	
7293	0	33948	
7294	0	34264	
7295	0	33368	
7296	0	33340	
7297	0	33060	
7298	0	33380	
7299	0	34800	
7300	0	36348	
7301	0	35404	
7302	0	33568	
7303	0	32229	
7304	0	32644	
7305	0	32340	
7306	0	31028	
7307	0	30688	
7308	0	29776	
7309	0	30676	
7310	0	31608	
7311	0	31684	
7312	0	32512	
7313	0	32882	
7314	0	33148	
7315	0	33664	
7316	0	33318	
7317	0	32357	
7318	0	31408	
7319	0	31600	
7320	0	32528	
7321	0	32800	
7322	0	33284	
7323	0	33304	
7324	0	33832	
7325	0	33508	
7326	0	32824	
7327	0	31836	
7328	0	31380	
7329	0	31290	
7330	0	32548	
7331	0	32884	
7332	0	33704	
7333	0	33752	
7334	0	33952	
7335	0	33764	
7336	0	32952	
7337	0	32044	
7338	0	31517	
7339	0	31728	
7340	0	32366	
7341	0	32708	
7342	0	33312	
7343	0	33464	
7344	0	33792	
7345	0	33480	
7346	0	32644	
7347	0	32036	
7348	0	31596	
7349	0	31712	
7350	0	32624	
7351	0	32908	
7352	0	33628	
7353	0	33892	
7354	0	34188	
7355	0	33400	
7356	0	32292	
7357	0	31168	
7358	0	30724	
7359	0	31460	
7360	0	32096	
7361	0	33264	
7362	0	33848	
7363	0	33652	
7364	0	33925	
7365	0	34084	
7366	0	33164	
7367	0	31856	
7368	0	32044	
7369	0	31552	
7370	0	32860	
7371	0	33436	
7372	0	33524	
7373	0	32924	
7374	0	32980	
7375	0	33304	
7376	0	32366	
7377	0	31840	
7378	0	31556	
7379	0	31510	
7380	0	32468	
7381	0	33872	
7382	0	33892	
7383	0	33993	
7384	0	34028	
7385	0	33009	
7386	0	32580	
7387	0	31656	
7388	0	31552	
7389	0	32080	
7390	0	33069	
7391	0	33400	
7392	0	33032	
7393	0	33072	
7394	0	33420	
7395	0	33652	
7396	0	32800	
7397	0	31500	
7398	0	31512	
7399	0	31588	
7400	0	32809	
7401	0	33376	
7402	0	33632	
7403	0	33308	
7404	0	33828	
7405	0	33736	
7406	0	32544	
7407	0	31820	
7408	0	31348	
7409	0	31660	
7410	0	32732	
7411	0	33104	
7412	0	33344	
7413	0	33609	
7414	0	34052	
7415	0	33340	
7416	0	32208	
7417	0	31316	
7418	0	31204	
7419	0	31784	
7420	0	32752	
7421	0	33040	
7422	0	33084	
7423	0	33406	
7424	0	33788	
7425	0	33772	
7426	0	33172	
7427	0	32092	
7428	0	31680	
7429	0	32068	
7430	0	33016	
7431	0	32948	
7432	0	33096	
7433	0	33580	
7434	0	33807	
7435	0	33548	
7436	0	32744	
7437	0	31476	
7438	0	31048	
7439	0	31572	
7440	0	33116	
7441	0	33476	
7442	0	33672	
7443	0	33576	
7444	0	33760	
7445	0	33332	
7446	0	32568	
7447	0	31696	
7448	0	31172	
7449	0	31804	
7450	0	32620	
7451	0	33205	
7452	0	33508	
7453	0	33496	
7454	0	33440	
7455	0	33408	
7456	0	32932	
7457	0	31824	
7458	0	31416	
7459	0	31798	
7460	0	32916	
7461	0	33576	
7462	0	33509	
7463	0	33416	
7464	0	33764	
7465	0	33516	
7466	0	32485	
7467	0	31536	
7468	0	31480	
7469	0	31820	
7470	0	32876	
7471	0	33400	
7472	0	33720	
7473	0	33472	
7474	0	33732	
7475	0	33556	
7476	0	32570	
7477	0	31558	
7478	0	31429	
7479	0	31552	
7480	0	32608	
7481	0	33192	
7482	0	33422	
7483	0	33436	
7484	0	33708	
7485	0	33549	
7486	0	32644	
7487	0	31872	
7488	0	31264	
7489	0	31688	
7490	0	32498	
7491	0	32960	
7492	0	33352	
7493	0	33629	
7494	0	33392	
7495	0	33584	
7496	0	32696	
7497	0	32048	
7498	0	31764	
7499	0	31668	
7500	0	32600	
7501	0	33312	
7502	0	33528	
7503	0	33684	
7504	0	33784	
7505	0	33596	
7506	0	32708	
7507	0	31680	
7508	0	31460	
7509	0	31820	
7510	0	32564	
7511	0	32716	
7512	0	33360	
7513	0	33840	
7514	0	34052	
7515	0	33616	
7516	0	32648	
7517	0	31756	
7518	0	31796	
7519	0	31876	
7520	0	32860	
7521	0	33276	
7522	0	33428	
7523	0	33345	
7524	0	33548	
7525	0	33557	
7526	0	32712	
7527	0	31492	
7528	0	31104	
7529	0	31728	
7530	0	32644	
7531	0	33272	
7532	0	33624	
7533	0	33428	
7534	0	33892	
7535	0	33704	
7536	0	32400	
7537	0	31256	
7538	0	31524	
7539	0	31585	
7540	0	32908	
7541	0	32912	
7542	0	33280	
7543	0	33312	
7544	0	33452	
7545	0	33608	
7546	0	32912	
7547	0	31932	
7548	0	31716	
7549	0	31804	
7550	0	32700	
7551	0	33076	
7552	0	33364	
7553	0	33592	
7554	0	33712	
7555	0	33536	
7556	0	33159	
7557	0	32220	
7558	0	31720	
7559	0	31600	
7560	0	32352	
7561	0	32866	
7562	0	33344	
7563	0	33328	
7564	0	33728	
7565	0	33504	
7566	0	32644	
7567	0	31672	
7568	0	31816	
7569	0	32056	
7570	0	32700	
7571	0	33060	
7572	0	33416	
7573	0	33473	
7574	0	33824	
7575	0	33616	
7576	0	32724	
7577	0	31724	
7578	0	31477	
7579	0	31804	
7580	0	32852	
7581	0	32964	
7582	0	33344	
7583	0	33476	
7584	0	33588	
7585	0	33700	
7586	0	32789	
7587	0	31748	
7588	0	31472	
7589	0	31648	
7590	0	32460	
7591	0	33038	
7592	0	33540	
7593	0	33646	
7594	0	33868	
7595	0	33664	
7596	0	32796	
7597	0	31704	
7598	0	31284	
7599	0	31616	
7600	0	32568	
7601	0	33296	
7602	0	33600	
7603	0	33488	
7604	0	33676	
7605	0	33532	
7606	0	32640	
7607	0	31660	
7608	0	31652	
7609	0	31924	
7610	0	32706	
7611	0	33216	
7612	0	33412	
7613	0	33301	
7614	0	33620	
7615	0	33832	
7616	0	32736	
7617	0	31588	
7618	0	31756	
7619	0	31716	
7620	0	32696	
7621	0	33208	
7622	0	33568	
7623	0	33352	
7624	0	33873	
7625	0	33900	
7626	0	32920	
7627	0	31464	
7628	0	31528	
7629	0	31652	
7630	0	32700	
7631	0	33028	
7632	0	33284	
7633	0	33408	
7634	0	33508	
7635	0	33740	
7636	0	33000	
7637	0	31846	
7638	0	31656	
7639	0	31613	
7640	0	32404	
7641	0	33045	
7642	0	33588	
7643	0	33684	
7644	0	33892	
7645	0	33596	
7646	0	32886	
7647	0	31852	
7648	0	31580	
7649	0	31584	
7650	0	32736	
7651	0	33024	
7652	0	33372	
7653	0	33444	
7654	0	33680	
7655	0	33412	
7656	0	32636	
7657	0	31744	
7658	0	31660	
7659	0	31668	
7660	0	32844	
7661	0	33244	
7662	0	33476	
7663	0	33316	
7664	0	33700	
7665	0	33624	
7666	0	33052	
7667	0	31796	
7668	0	31680	
7669	0	31664	
7670	0	32376	
7671	0	33014	
7672	0	33436	
7673	0	33428	
7674	0	33401	
7675	0	33601	
7676	0	32688	
7677	0	31536	
7678	0	31486	
7679	0	31748	
7680	0	32804	
7681	0	33260	
7682	0	33333	
7683	0	33273	
7684	0	33736	
7685	0	33853	
7686	0	32849	
7687	0	31765	
7688	0	31424	
7689	0	31564	
7690	0	32760	
7691	0	33172	
7692	0	33544	
7693	0	33572	
7694	0	33808	
7695	0	33444	
7696	0	32684	
7697	0	31600	
7698	0	31500	
7699	0	31668	
7700	0	32808	
7701	0	33196	
7702	0	33582	
7703	0	33340	
7704	0	33696	
7705	0	33580	
7706	0	32644	
7707	0	31524	
7708	0	31608	
7709	0	31725	
7710	0	32568	
7711	0	33160	
7712	0	33708	
7713	0	33476	
7714	0	33444	
7715	0	33512	
7716	0	32712	
7717	0	31580	
7718	0	31620	
7719	0	31897	
7720	0	32500	
7721	0	33116	
7722	0	33416	
7723	0	33532	
7724	0	33808	
7725	0	33577	
7726	0	32612	
7727	0	31680	
7728	0	31376	
7729	0	31748	
7730	0	33008	
7731	0	33304	
7732	0	33412	
7733	0	33136	
7734	0	33716	
7735	0	33868	
7736	0	33165	
7737	0	31864	
7738	0	31628	
7739	0	31500	
7740	0	32520	
7741	0	32984	
7742	0	33400	
7743	0	33640	
7744	0	33796	
7745	0	33532	
7746	0	32664	
7747	0	31537	
7748	0	31508	
7749	0	31656	
7750	0	32636	
7751	0	33168	
7752	0	33517	
7753	0	33720	
7754	0	33688	
7755	0	33684	
7756	0	32620	
7757	0	31717	
7758	0	31728	
7759	0	31676	
7760	0	32624	
7761	0	32976	
7762	0	33692	
7763	0	33161	
7764	0	33717	
7765	0	33712	
7766	0	32692	
7767	0	31792	
7768	0	31700	
7769	0	31608	
7770	0	32744	
7771	0	33156	
7772	0	33417	
7773	0	33292	
7774	0	33608	
7775	0	33640	
7776	0	32820	
7777	0	31824	
7778	0	31588	
7779	0	31642	
7780	0	32600	
7781	0	32920	
7782	0	33632	
7783	0	33636	
7784	0	33684	
7785	0	33420	
7786	0	32733	
7787	0	31892	
7788	0	31612	
7789	0	31608	
7790	0	32681	
7791	0	32996	
7792	0	33500	
7793	0	33448	
7794	0	33572	
7795	0	33344	
7796	0	32608	
7797	0	31480	
7798	0	31356	
7799	0	31788	
7800	0	32668	
7801	0	32952	
7802	0	33414	
7803	0	33612	
7804	0	33892	
7805	0	33780	
7806	0	33004	
7807	0	32080	
7808	0	31640	
7809	0	31956	
7810	0	32524	
7811	0	33013	
7812	0	33536	
7813	0	33416	
7814	0	33644	
7815	0	33504	
7816	0	32732	
7817	0	31676	
7818	0	31312	
7819	0	31756	
7820	0	32796	
7821	0	33132	
7822	0	33532	
7823	0	33404	
7824	0	33472	
7825	0	33600	
7826	0	32768	
7827	0	31952	
7828	0	31776	
7829	0	31792	
7830	0	32752	
7831	0	33028	
7832	0	33276	
7833	0	33400	
7834	0	33748	
7835	0	33516	
7836	0	32680	
7837	0	31760	
7838	0	31740	
7839	0	31844	
7840	0	32672	
7841	0	32996	
7842	0	33320	
7843	0	33356	
7844	0	33600	
7845	0	33652	
7846	0	32880	
7847	0	31820	
7848	0	31624	
7849	0	31732	
7850	0	32600	
7851	0	33148	
7852	0	33429	
7853	0	33388	
7854	0	33584	
7855	0	33518	
7856	0	32828	
7857	0	31628	
7858	0	31536	
7859	0	31752	
7860	0	32688	
7861	0	33068	
7862	0	33484	
7863	0	33737	
7864	0	33668	
7865	0	33692	
7866	0	32804	
7867	0	31892	
7868	0	31420	
7869	0	31384	
7870	0	32726	
7871	0	33280	
7872	0	33620	
7873	0	33520	
7874	0	33584	
7875	0	33612	
7876	0	32520	
7877	0	31684	
7878	0	31652	
7879	0	31772	
7880	0	32608	
7881	0	32976	
7882	0	33344	
7883	0	33404	
7884	0	33656	
7885	0	33568	
7886	0	32788	
7887	0	31788	
7888	0	31256	
7889	0	31600	
7890	0	32876	
7891	0	33132	
7892	0	33588	
7893	0	33440	
7894	0	33612	
7895	0	33892	
7896	0	32908	
7897	0	31792	
7898	0	31612	
7899	0	31684	
7900	0	32680	
7901	0	32984	
7902	0	33348	
7903	0	33428	
7904	0	33548	
7905	0	33696	
7906	0	32929	
7907	0	31764	
7908	0	31584	
7909	0	31680	
7910	0	32353	
7911	0	32944	
7912	0	33608	
7913	0	33700	
7914	0	33808	
7915	0	33524	
7916	0	32780	
7917	0	31904	
7918	0	31684	
7919	0	31804	
7920	0	32668	
7921	0	32948	
7922	0	33344	
7923	0	33350	
7924	0	33636	
7925	0	33800	
7926	0	32910	
7927	0	31964	
7928	0	31576	
7929	0	31600	
7930	0	32560	
7931	0	33065	
7932	0	33297	
7933	0	33437	
7934	0	33680	
7935	0	33584	
7936	0	32760	
7937	0	31812	
7938	0	31800	
7939	0	31680	
7940	0	32592	
7941	0	33053	
7942	0	33413	
7943	0	33296	
7944	0	33789	
7945	0	33680	
7946	0	32744	
7947	0	31684	
7948	0	31712	
7949	0	31592	
7950	0	32536	
7951	0	33306	
7952	0	33620	
7953	0	33420	
7954	0	33662	
7955	0	33560	
7956	0	32632	
7957	0	31676	
7958	0	31692	
7959	0	31904	
7960	0	32780	
7961	0	33141	
7962	0	33464	
7963	0	33501	
7964	0	33604	
7965	0	33556	
7966	0	32734	
7967	0	31824	
7968	0	31676	
7969	0	31568	
7970	0	32644	
7971	0	33157	
7972	0	33444	
7973	0	33396	
7974	0	33728	
7975	0	33441	
7976	0	32644	
7977	0	31752	
7978	0	31828	
7979	0	31584	
7980	0	32436	
7981	0	33156	
7982	0	33544	
7983	0	33532	
7984	0	33936	
7985	0	33616	
7986	0	32732	
7987	0	31592	
7988	0	31544	
7989	0	31888	
7990	0	32784	
7991	0	33408	
7992	0	33628	
7993	0	33384	
7994	0	33552	
7995	0	33400	
7996	0	32608	
7997	0	31818	
7998	0	31744	
7999	0	31724	
8000	0	32624	
8001	0	33256	
8002	0	33344	
8003	0	33292	
8004	0	33748	
8005	0	33764	
8006	0	32841	
8007	0	31620	
8008	0	31456	
8009	0	31644	
8010	0	32673	
8011	0	33284	
8012	0	33504	
8013	0	33473	
8014	0	33648	
8015	0	33720	
8016	0	32696	
8017	0	31772	
8018	0	31548	
8019	0	31632	
8020	0	32744	
8021	0	33124	
8022	0	33565	
8023	0	33332	
8024	0	33564	
8025	0	33652	
8026	0	32712	
8027	0	31484	
8028	0	31480	
8029	0	31620	
8030	0	32632	
8031	0	33272	
8032	0	33524	
8033	0	33496	
8034	0	33864	
8035	0	33788	
8036	0	32660	
8037	0	31728	
8038	0	31508	
8039	0	31692	
8040	0	32632	
8041	0	33204	
8042	0	33404	
8043	0	33628	
8044	0	33856	
8045	0	33398	
8046	0	32805	
8047	0	31738	
8048	0	31724	
8049	0	31776	
8050	0	32652	
8051	0	33148	
8052	0	33364	
8053	0	33292	
8054	0	33614	
8055	0	33733	
8056	0	32885	
8057	0	31764	
8058	0	31508	
8059	0	31764	
8060	0	32648	
8061	0	33128	
8062	0	33448	
8063	0	33576	
8064	0	33694	
8065	0	33576	
8066	0	32788	
8067	0	31592	
8068	0	31584	
8069	0	31632	
8070	0	32596	
8071	0	33120	
8072	0	33412	
8073	0	33428	
8074	0	33748	
8075	0	33750	
8076	0	32736	
8077	0	31801	
8078	0	31660	
8079	0	31532	
8080	0	32484	
8081	0	33128	
8082	0	33716	
8083	0	33268	
8084	0	33572	
8085	0	33508	
8086	0	32836	
8087	0	31668	
8088	0	31568	
8089	0	31852	
8090	0	32569	
8091	0	33213	
8092	0	33716	
8093	0	33436	
8094	0	33540	
8095	0	33756	
8096	0	32860	
8097	0	31492	
8098	0	31577	
8099	0	31648	
8100	0	32608	
8101	0	33308	
8102	0	33412	
8103	0	33360	
8104	0	33596	
8105	0	33472	
8106	0	32744	
8107	0	31729	
8108	0	31604	
8109	0	31648	
8110	0	32718	
8111	0	33244	
8112	0	33453	
8113	0	33510	
8114	0	33740	
8115	0	33570	
8116	0	32872	
8117	0	31840	
8118	0	31713	
8119	0	31636	
8120	0	32652	
8121	0	33124	
8122	0	33453	
8123	0	33440	
8124	0	33636	
8125	0	33392	
8126	0	32644	
8127	0	31724	
8128	0	31300	
8129	0	31668	
8130	0	32968	
8131	0	33566	
8132	0	33888	
8133	0	33262	
8134	0	33576	
8135	0	33404	
8136	0	32404	
8137	0	31868	
8138	0	31604	
8139	0	31879	
8140	0	32588	
8141	0	33092	
8142	0	33496	
8143	0	33364	
8144	0	33740	
8145	0	33564	
8146	0	32760	
8147	0	31860	
8148	0	31900	
8149	0	31836	
8150	0	32604	
8151	0	33150	
8152	0	33413	
8153	0	33464	
8154	0	33732	
8155	0	33608	
8156	0	32868	
8157	0	31696	
8158	0	31516	
8159	0	31712	
8160	0	32656	
8161	0	32934	
8162	0	33576	
8163	0	33432	
8164	0	33548	
8165	0	33924	
8166	0	32868	
8167	0	31660	
8168	0	31624	
8169	0	31776	
8170	0	32623	
8171	0	32956	
8172	0	33476	
8173	0	33436	
8174	0	33760	
8175	0	33676	
8176	0	32784	
8177	0	31808	
8178	0	31554	
8179	0	31852	
8180	0	32632	
8181	0	33092	
8182	0	33564	
8183	0	33452	
8184	0	33640	
8185	0	33712	
8186	0	32800	
8187	0	31796	
8188	0	31372	
8189	0	31552	
8190	0	32676	
8191	0	33229	
8192	0	33488	
8193	0	33396	
8194	0	33564	
8195	0	33630	
8196	0	32692	
8197	0	31632	
8198	0	31628	
8199	0	31736	
8200	0	32724	
8201	0	33136	
8202	0	33664	
8203	0	33441	
8204	0	33692	
8205	0	33424	
8206	0	32644	
8207	0	31916	
8208	0	31652	
8209	0	31764	
8210	0	32704	
8211	0	33140	
8212	0	33536	
8213	0	33389	
8214	0	33748	
8215	0	33520	
8216	0	32901	
8217	0	31672	
8218	0	31332	
8219	0	31344	
8220	0	32540	
8221	0	33208	
8222	0	33560	
8223	0	33381	
8224	0	33616	
8225	0	33596	
8226	0	32808	
8227	0	31768	
8228	0	31528	
8229	0	31748	
8230	0	32832	
8231	0	33488	
8232	0	33580	
8233	0	33361	
8234	0	33580	
8235	0	33452	
8236	0	32856	
8237	0	31760	
8238	0	31680	
8239	0	31552	
8240	0	32660	
8241	0	33004	
8242	0	33511	
8243	0	33488	
8244	0	33813	
8245	0	33740	
8246	0	32824	
8247	0	31680	
8248	0	31804	
8249	0	31972	
8250	0	32624	
8251	0	33028	
8252	0	33280	
8253	0	33248	
8254	0	33624	
8255	0	33584	
8256	0	32814	
8257	0	31536	
8258	0	31412	
8259	0	31576	
8260	0	33032	
8261	0	33400	
8262	0	33584	
8263	0	33381	
8264	0	33736	
8265	0	33508	
8266	0	32756	
8267	0	31714	
8268	0	31608	
8269	0	31688	
8270	0	32620	
8271	0	33016	
8272	0	33504	
8273	0	33464	
8274	0	33644	
8275	0	33288	
8276	0	32684	
8277	0	32004	
8278	0	32064	
8279	0	31804	
8280	0	32560	
8281	0	32984	
8282	0	33312	
8283	0	33485	
8284	0	33788	
8285	0	33604	
8286	0	32760	
8287	0	31684	
8288	0	31541	
8289	0	31716	
8290	0	32708	
8291	0	33100	
8292	0	33436	
8293	0	33420	
8294	0	33694	
8295	0	33488	
8296	0	32708	
8297	0	31684	
8298	0	31740	
8299	0	31696	
8300	0	32732	
8301	0	32948	
8302	0	33438	
8303	0	33692	
8304	0	33708	
8305	0	33644	
8306	0	32860	
8307	0	31700	
8308	0	31552	
8309	0	31741	
8310	0	32544	
8311	0	33005	
8312	0	33292	
8313	0	33560	
8314	0	33884	
8315	0	33668	
8316	0	32732	
8317	0	31728	
8318	0	31596	
8319	0	31588	
8320	0	32636	
8321	0	33236	
8322	0	33500	
8323	0	33197	
8324	0	33548	
8325	0	33666	
8326	0	33152	
8327	0	31644	
8328	0	31544	
8329	0	31716	
8330	0	32678	
8331	0	33068	
8332	0	33416	
8333	0	33549	
8334	0	33708	
8335	0	33584	
8336	0	32896	
8337	0	31648	
8338	0	31517	
8339	0	31832	
8340	0	32766	
8341	0	33120	
8342	0	33228	
8343	0	33476	
8344	0	33628	
8345	0	33788	
8346	0	32824	
8347	0	31520	
8348	0	31326	
8349	0	31728	
8350	0	32864	
8351	0	33032	
8352	0	33392	
8353	0	33588	
8354	0	33676	
8355	0	33588	
8356	0	32720	
8357	0	31808	
8358	0	31612	
8359	0	31676	
8360	0	32625	
8361	0	33060	
8362	0	33448	
8363	0	33440	
8364	0	33692	
8365	0	33512	
8366	0	32878	
8367	0	31764	
8368	0	31404	
8369	0	31740	
8370	0	32686	
8371	0	32901	
8372	0	33533	
8373	0	33496	
8374	0	33708	
8375	0	33748	
8376	0	32693	
8377	0	31832	
8378	0	31725	
8379	0	31924	
8380	0	32684	
8381	0	33028	
8382	0	33253	
8383	0	33426	
8384	0	33548	
8385	0	33380	
8386	0	32772	
8387	0	31696	
8388	0	31378	
8389	0	31844	
8390	0	32646	
8391	0	33184	
8392	0	33500	
8393	0	33552	
8394	0	33676	
8395	0	33492	
8396	0	32717	
8397	0	31728	
8398	0	31380	
8399	0	31868	
8400	0	32952	
8401	0	33052	
8402	0	33433	
8403	0	33664	
8404	0	33736	
8405	0	33484	
8406	0	32832	
8407	0	31752	
8408	0	31524	
8409	0	31768	
8410	0	32592	
8411	0	32980	
8412	0	33376	
8413	0	33548	
8414	0	33740	
8415	0	33352	
8416	0	32812	
8417	0	31665	
8418	0	31456	
8419	0	31745	
8420	0	32844	
8421	0	33128	
8422	0	33588	
8423	0	33476	
8424	0	33512	
8425	0	33468	
8426	0	33004	
8427	0	31908	
8428	0	31593	
8429	0	31828	
8430	0	32536	
8431	0	32992	
8432	0	33476	
8433	0	33404	
8434	0	33640	
8435	0	33524	
8436	0	32708	
8437	0	31792	
8438	0	31388	
8439	0	31520	
8440	0	32664	
8441	0	33216	
8442	0	33616	
8443	0	33552	
8444	0	33664	
8445	0	33448	
8446	0	32740	
8447	0	31512	
8448	0	31296	
8449	0	31774	
8450	0	32692	
8451	0	33176	
8452	0	33528	
8453	0	33672	
8454	0	33916	
8455	0	33428	
8456	0	32612	
8457	0	31796	
8458	0	31444	
8459	0	31728	
8460	0	32784	
8461	0	33156	
8462	0	33264	
8463	0	33564	
8464	0	33604	
8465	0	33336	
8466	0	32788	
8467	0	31808	
8468	0	31638	
8469	0	31820	
8470	0	32792	
8471	0	33108	
8472	0	33384	
8473	0	33342	
8474	0	33568	
8475	0	33516	
8476	0	32948	
8477	0	31932	
8478	0	31760	
8479	0	31756	
8480	0	32452	
8481	0	32660	
8482	0	33176	
8483	0	33540	
8484	0	34008	
8485	0	33752	
8486	0	32824	
8487	0	31692	
8488	0	31568	
8489	0	32064	
8490	0	32532	
8491	0	33096	
8492	0	33497	
8493	0	33500	
8494	0	33612	
8495	0	33504	
8496	0	32727	
8497	0	31796	
8498	0	31616	
8499	0	31696	
8500	0	32472	
8501	0	33156	
8502	0	33432	
8503	0	33549	
8504	0	33588	
8505	0	33344	
8506	0	32660	
8507	0	31996	
8508	0	31776	
8509	0	32004	
8510	0	32592	
8511	0	32896	
8512	0	33661	
8513	0	33472	
8514	0	33316	
8515	0	33422	
8516	0	32800	
8517	0	31652	
8518	0	31274	
8519	0	31976	
8520	0	32884	
8521	0	33192	
8522	0	33480	
8523	0	33376	
8524	0	33444	
8525	0	33620	
8526	0	32788	
8527	0	31884	
8528	0	31572	
8529	0	31960	
8530	0	32676	
8531	0	33212	
8532	0	33256	
8533	0	33600	
8534	0	34048	
8535	0	33740	
8536	0	32692	
8537	0	31684	
8538	0	31640	
8539	0	31624	
8540	0	32708	
8541	0	32960	
8542	0	33352	
8543	0	33436	
8544	0	33580	
8545	0	33348	
8546	0	32710	
8547	0	31856	
8548	0	31600	
8549	0	32128	
8550	0	32798	
8551	0	33013	
8552	0	33360	
8553	0	33490	
8554	0	33648	
8555	0	33388	
8556	0	32724	
8557	0	31860	
8558	0	31756	
8559	0	32044	
8560	0	32508	
8561	0	32928	
8562	0	33324	
8563	0	33472	
8564	0	33652	
8565	0	33316	
8566	0	32628	
8567	0	31834	
8568	0	31649	
8569	0	31684	
8570	0	32724	
8571	0	33048	
8572	0	33352	
8573	0	33480	
8574	0	33852	
8575	0	33300	
8576	0	32544	
8577	0	31884	
8578	0	31692	
8579	0	31992	
8580	0	32696	
8581	0	33049	
8582	0	33416	
8583	0	33302	
8584	0	33508	
8585	0	33564	
8586	0	32756	
8587	0	31740	
8588	0	31768	
8589	0	31924	
8590	0	32556	
8591	0	33044	
8592	0	33256	
8593	0	33580	
8594	0	34012	
8595	0	33792	
8596	0	32734	
8597	0	31568	
8598	0	31484	
8599	0	31756	
8600	0	32740	
8601	0	33045	
8602	0	33312	
8603	0	33560	
8604	0	33752	
8605	0	33576	
8606	0	32724	
8607	0	32008	
8608	0	31764	
8609	0	31812	
8610	0	32561	
8611	0	32996	
8612	0	33268	
8613	0	33352	
8614	0	33620	
