# OpenSignals Text File Format. Version 1
# {"00:07:80:4D:2E:9E": {"position": 0, "device": "biosignalsplux", "device name": "00:07:80:4D:2E:9E", "device connection": "BTH00:07:80:4D:2E:9E", "sampling rate": 1000, "resolution": [16], "firmware version": 774, "comments": "", "keywords": "", "mode": 0, "sync interval": 2, "date": "2020-7-25", "time": "19:49:47.680", "channels": [1], "sensor": ["EMG"], "label": ["CH1"], "column": ["nSeq", "DI", "CH1"], "special": [{}], "digital IO": [0, 1]}}
# EndOfHeader
0	0	33088	
1	0	32884	
2	0	32772	
3	0	32832	
4	0	32864	
5	0	32804	
6	0	32868	
7	0	32740	
8	0	32700	
9	0	32740	
10	0	32696	
11	0	32841	
12	0	32720	
13	0	32764	
14	0	32921	
15	0	32684	
16	0	32784	
17	0	32740	
18	0	32629	
19	0	32736	
20	0	32898	
21	0	32916	
22	0	32898	
23	0	32660	
24	0	32750	
25	0	32676	
26	0	32652	
27	0	32732	
28	0	32972	
29	0	32988	
30	0	32804	
31	0	32750	
32	0	32780	
33	0	32856	
34	0	32956	
35	0	32633	
36	0	32580	
37	0	32725	
38	0	32792	
39	0	32816	
40	0	32892	
41	0	32760	
42	0	32772	
43	0	32696	
44	0	32776	
45	0	32852	
46	0	32860	
47	0	32956	
48	0	32766	
49	0	32824	
50	0	32700	
51	0	32848	
52	0	32948	
53	0	32736	
54	0	32560	
55	0	32436	
56	0	32436	
57	0	32582	
58	0	32762	
59	0	32940	
60	0	33084	
61	0	33168	
62	0	32917	
63	0	32832	
64	0	32740	
65	0	32720	
66	0	32960	
67	0	32976	
68	0	32956	
69	0	33040	
70	0	32672	
71	0	32484	
72	0	32544	
73	0	32596	
74	0	32480	
75	0	32304	
76	0	32504	
77	0	32748	
78	0	32989	
79	0	33152	
80	0	33024	
81	0	32948	
82	0	32792	
83	0	32756	
84	0	32724	
85	0	32760	
86	0	32784	
87	0	32824	
88	0	32740	
89	0	32912	
90	0	32928	
91	0	32881	
92	0	32660	
93	0	32432	
94	0	32608	
95	0	32664	
96	0	32820	
97	0	32780	
98	0	32772	
99	0	32868	
100	0	32816	
101	0	32760	
102	0	32756	
103	0	32789	
104	0	32856	
105	0	32804	
106	0	32840	
107	0	32764	
108	0	32677	
109	0	32802	
110	0	32814	
111	0	32836	
112	0	33040	
113	0	32960	
114	0	32876	
115	0	32548	
116	0	32530	
117	0	32648	
118	0	32660	
119	0	32894	
120	0	32953	
121	0	32904	
122	0	32780	
123	0	32696	
124	0	32692	
125	0	32800	
126	0	32784	
127	0	32744	
128	0	32664	
129	0	32744	
130	0	32684	
131	0	32781	
132	0	32772	
133	0	32836	
134	0	32884	
135	0	32608	
136	0	32672	
137	0	32744	
138	0	32708	
139	0	32960	
140	0	32932	
141	0	32840	
142	0	32845	
143	0	32748	
144	0	32708	
145	0	32749	
146	0	32736	
147	0	32741	
148	0	32744	
149	0	32940	
150	0	32872	
151	0	32868	
152	0	32732	
153	0	32680	
154	0	32636	
155	0	32556	
156	0	32692	
157	0	32868	
158	0	32879	
159	0	32800	
160	0	32776	
161	0	32652	
162	0	32672	
163	0	32725	
164	0	32840	
165	0	32788	
166	0	32884	
167	0	33013	
168	0	33041	
169	0	33260	
170	0	33296	
171	0	33336	
172	0	33007	
173	0	32452	
174	0	32161	
175	0	32061	
176	0	32196	
177	0	32396	
178	0	32680	
179	0	32968	
180	0	32956	
181	0	32984	
182	0	32892	
183	0	32816	
184	0	32664	
185	0	32768	
186	0	32852	
187	0	32800	
188	0	32821	
189	0	32932	
190	0	32784	
191	0	32868	
192	0	32884	
193	0	32756	
194	0	32730	
195	0	32639	
196	0	32820	
197	0	32784	
198	0	32644	
199	0	32688	
200	0	32684	
201	0	32568	
202	0	32562	
203	0	32648	
204	0	32832	
205	0	33160	
206	0	33084	
207	0	33000	
208	0	32804	
209	0	32788	
210	0	32720	
211	0	32620	
212	0	32622	
213	0	32564	
214	0	32648	
215	0	32492	
216	0	32660	
217	0	32720	
218	0	32728	
219	0	32997	
220	0	32924	
221	0	32764	
222	0	32832	
223	0	32832	
224	0	32929	
225	0	32928	
226	0	32748	
227	0	32836	
228	0	32920	
229	0	32972	
230	0	32708	
231	0	32632	
232	0	32764	
233	0	32676	
234	0	32760	
235	0	32740	
236	0	32764	
237	0	32792	
238	0	32756	
239	0	32752	
240	0	32725	
241	0	32725	
242	0	32960	
243	0	32892	
244	0	32724	
245	0	32760	
246	0	32884	
247	0	32808	
248	0	32881	
249	0	32924	
250	0	32724	
251	0	32622	
252	0	32632	
253	0	32708	
254	0	32604	
255	0	32396	
256	0	32605	
257	0	32732	
258	0	32844	
259	0	32900	
260	0	33048	
261	0	33316	
262	0	33124	
263	0	32808	
264	0	32796	
265	0	32968	
266	0	32768	
267	0	32564	
268	0	32536	
269	0	32685	
270	0	32725	
271	0	32828	
272	0	32636	
273	0	32612	
274	0	32756	
275	0	32638	
276	0	32629	
277	0	32736	
278	0	32758	
279	0	32900	
280	0	32909	
281	0	32880	
282	0	32920	
283	0	32868	
284	0	32828	
285	0	32784	
286	0	32684	
287	0	32756	
288	0	32756	
289	0	32933	
290	0	32728	
291	0	32752	
292	0	32669	
293	0	32693	
294	0	32672	
295	0	32592	
296	0	32836	
297	0	32928	
298	0	33126	
299	0	33072	
300	0	32928	
301	0	32808	
302	0	32632	
303	0	32484	
304	0	32668	
305	0	32756	
306	0	32760	
307	0	32772	
308	0	32989	
309	0	33072	
310	0	32726	
311	0	32696	
312	0	32621	
313	0	32736	
314	0	32688	
315	0	32608	
316	0	32756	
317	0	32712	
318	0	32736	
319	0	32672	
320	0	32736	
321	0	32820	
322	0	33064	
323	0	33016	
324	0	32944	
325	0	32928	
326	0	32766	
327	0	32640	
328	0	32756	
329	0	32850	
330	0	32800	
331	0	32812	
332	0	32788	
333	0	32660	
334	0	32626	
335	0	32453	
336	0	32676	
337	0	32773	
338	0	32801	
339	0	32856	
340	0	32820	
341	0	32876	
342	0	32792	
343	0	32804	
344	0	32760	
345	0	32765	
346	0	32804	
347	0	32768	
348	0	32886	
349	0	33166	
350	0	33088	
351	0	32812	
352	0	32612	
353	0	32616	
354	0	32596	
355	0	32424	
356	0	32776	
357	0	32676	
358	0	32628	
359	0	32928	
360	0	32840	
361	0	32808	
362	0	32804	
363	0	32912	
364	0	32988	
365	0	32908	
366	0	32828	
367	0	32815	
368	0	32751	
369	0	32872	
370	0	32656	
371	0	32716	
372	0	32636	
373	0	32600	
374	0	32772	
375	0	32632	
376	0	32752	
377	0	32828	
378	0	32796	
379	0	32865	
380	0	32840	
381	0	32692	
382	0	32752	
383	0	32808	
384	0	33064	
385	0	32884	
386	0	32769	
387	0	32848	
388	0	33000	
389	0	33060	
390	0	32744	
391	0	32494	
392	0	32518	
393	0	32604	
394	0	32572	
395	0	32588	
396	0	32709	
397	0	32800	
398	0	32700	
399	0	32900	
400	0	32940	
401	0	32856	
402	0	32884	
403	0	32761	
404	0	32736	
405	0	32678	
406	0	32663	
407	0	32604	
408	0	32768	
409	0	33156	
410	0	33092	
411	0	32820	
412	0	32848	
413	0	32913	
414	0	32924	
415	0	32620	
416	0	32632	
417	0	32562	
418	0	32453	
419	0	32816	
420	0	32932	
421	0	32804	
422	0	32724	
423	0	32584	
424	0	32708	
425	0	32804	
426	0	32792	
427	0	32964	
428	0	32976	
429	0	33092	
430	0	32828	
431	0	32824	
432	0	32828	
433	0	32772	
434	0	32632	
435	0	32468	
436	0	32568	
437	0	32622	
438	0	32636	
439	0	32834	
440	0	32758	
441	0	32816	
442	0	32660	
443	0	32700	
444	0	32776	
445	0	32892	
446	0	33080	
447	0	32988	
448	0	32964	
449	0	32840	
450	0	32620	
451	0	32640	
452	0	32752	
453	0	32812	
454	0	32600	
455	0	32376	
456	0	32524	
457	0	32672	
458	0	32814	
459	0	33120	
460	0	33064	
461	0	32985	
462	0	32910	
463	0	32888	
464	0	32880	
465	0	32737	
466	0	32816	
467	0	32932	
468	0	33000	
469	0	32944	
470	0	32648	
471	0	32605	
472	0	32584	
473	0	32516	
474	0	32504	
475	0	32252	
476	0	32500	
477	0	32652	
478	0	32708	
479	0	33012	
480	0	33096	
481	0	33176	
482	0	33120	
483	0	33116	
484	0	32865	
485	0	32724	
486	0	32732	
487	0	32644	
488	0	32836	
489	0	32966	
490	0	32796	
491	0	32728	
492	0	32700	
493	0	32609	
494	0	32488	
495	0	32553	
496	0	32786	
497	0	32916	
498	0	32804	
499	0	32797	
500	0	32848	
501	0	32912	
502	0	32822	
503	0	32732	
504	0	32628	
505	0	32796	
506	0	32700	
507	0	32916	
508	0	33134	
509	0	32920	
510	0	32856	
511	0	32980	
512	0	32864	
513	0	32668	
514	0	32468	
515	0	32504	
516	0	32620	
517	0	32684	
518	0	32581	
519	0	32864	
520	0	32988	
521	0	32868	
522	0	32761	
523	0	32832	
524	0	32772	
525	0	32760	
526	0	32897	
527	0	32895	
528	0	32948	
529	0	32980	
530	0	32892	
531	0	32940	
532	0	32916	
533	0	32773	
534	0	32424	
535	0	32212	
536	0	32388	
537	0	32576	
538	0	32724	
539	0	32996	
540	0	33124	
541	0	32933	
542	0	32760	
543	0	32692	
544	0	32754	
545	0	32896	
546	0	32848	
547	0	32868	
548	0	33060	
549	0	33072	
550	0	32744	
551	0	32480	
552	0	32520	
553	0	32376	
554	0	32372	
555	0	32228	
556	0	32365	
557	0	32644	
558	0	32824	
559	0	33334	
560	0	33465	
561	0	33348	
562	0	33220	
563	0	32984	
564	0	32757	
565	0	32606	
566	0	32532	
567	0	32620	
568	0	32900	
569	0	33044	
570	0	33040	
571	0	32912	
572	0	33004	
573	0	32632	
574	0	32416	
575	0	32316	
576	0	32532	
577	0	32628	
578	0	32836	
579	0	33136	
580	0	32992	
581	0	32740	
582	0	32564	
583	0	32540	
584	0	32492	
585	0	32584	
586	0	32568	
587	0	32604	
588	0	32888	
589	0	32762	
590	0	32724	
591	0	33145	
592	0	33428	
593	0	33524	
594	0	33249	
595	0	32700	
596	0	32549	
597	0	32564	
598	0	32616	
599	0	33088	
600	0	32960	
601	0	32600	
602	0	32581	
603	0	32672	
604	0	32856	
605	0	32760	
606	0	32684	
607	0	32748	
608	0	32748	
609	0	32612	
610	0	32660	
611	0	32670	
612	0	32624	
613	0	32664	
614	0	32584	
615	0	32592	
616	0	32656	
617	0	32772	
618	0	33116	
619	0	33368	
620	0	33068	
621	0	32932	
622	0	32704	
623	0	32650	
624	0	32612	
625	0	32812	
626	0	32817	
627	0	32860	
628	0	32968	
629	0	32784	
630	0	32736	
631	0	32616	
632	0	32616	
633	0	32636	
634	0	32624	
635	0	32629	
636	0	32728	
637	0	32788	
638	0	32964	
639	0	33016	
640	0	32836	
641	0	32752	
642	0	32749	
643	0	32788	
644	0	32816	
645	0	32856	
646	0	32900	
647	0	32888	
648	0	33056	
649	0	32920	
650	0	32741	
651	0	32748	
652	0	32644	
653	0	32700	
654	0	32524	
655	0	32681	
656	0	32832	
657	0	32652	
658	0	32628	
659	0	32772	
660	0	32804	
661	0	32844	
662	0	32856	
663	0	32844	
664	0	32924	
665	0	32892	
666	0	32796	
667	0	32844	
668	0	32876	
669	0	32770	
670	0	32668	
671	0	32536	
672	0	32536	
673	0	32520	
674	0	32596	
675	0	32780	
676	0	33020	
677	0	33208	
678	0	33025	
679	0	32892	
680	0	32820	
681	0	32724	
682	0	32644	
683	0	32892	
684	0	32668	
685	0	32744	
686	0	32760	
687	0	32952	
688	0	33488	
689	0	33292	
690	0	32888	
691	0	32576	
692	0	32441	
693	0	32612	
694	0	32504	
695	0	32392	
696	0	32517	
697	0	32584	
698	0	32736	
699	0	32932	
700	0	33028	
701	0	33044	
702	0	32816	
703	0	32645	
704	0	32628	
705	0	32800	
706	0	32864	
707	0	32928	
708	0	33144	
709	0	32916	
710	0	32654	
711	0	32620	
712	0	32560	
713	0	32588	
714	0	32576	
715	0	32596	
716	0	32836	
717	0	32984	
718	0	32984	
719	0	32840	
720	0	32828	
721	0	32888	
722	0	32772	
723	0	32564	
724	0	32632	
725	0	32848	
726	0	32873	
727	0	32921	
728	0	33064	
729	0	32776	
730	0	32629	
731	0	32652	
732	0	32548	
733	0	32641	
734	0	32644	
735	0	32781	
736	0	33060	
737	0	32900	
738	0	32760	
739	0	32760	
740	0	32860	
741	0	32896	
742	0	32789	
743	0	32740	
744	0	32832	
745	0	33024	
746	0	33096	
747	0	32741	
748	0	32717	
749	0	32620	
750	0	32716	
751	0	32700	
752	0	32714	
753	0	32928	
754	0	32656	
755	0	32444	
756	0	32495	
757	0	32704	
758	0	32777	
759	0	33000	
760	0	32980	
761	0	32788	
762	0	32752	
763	0	32740	
764	0	32838	
765	0	32877	
766	0	32796	
767	0	32847	
768	0	33204	
769	0	32916	
770	0	32736	
771	0	32724	
772	0	32784	
773	0	32752	
774	0	32516	
775	0	32436	
776	0	32476	
777	0	32600	
778	0	32756	
779	0	33014	
780	0	32988	
781	0	32996	
782	0	33132	
783	0	33020	
784	0	32784	
785	0	32668	
786	0	32620	
787	0	32757	
788	0	32992	
789	0	32829	
790	0	32668	
791	0	32576	
792	0	32532	
793	0	32612	
794	0	32457	
795	0	32502	
796	0	32640	
797	0	32760	
798	0	32956	
799	0	33040	
800	0	33016	
801	0	32885	
802	0	32772	
803	0	32877	
804	0	32848	
805	0	32806	
806	0	32688	
807	0	32920	
808	0	32904	
809	0	32556	
810	0	32516	
811	0	32692	
812	0	33080	
813	0	32892	
814	0	32520	
815	0	32548	
816	0	32584	
817	0	32460	
818	0	32764	
819	0	33045	
820	0	33020	
821	0	33040	
822	0	33080	
823	0	33040	
824	0	32976	
825	0	32968	
826	0	32909	
827	0	32832	
828	0	32860	
829	0	32776	
830	0	32704	
831	0	32568	
832	0	32576	
833	0	32640	
834	0	32388	
835	0	32500	
836	0	32692	
837	0	32704	
838	0	32776	
839	0	32864	
840	0	32780	
841	0	32800	
842	0	32848	
843	0	32788	
844	0	32868	
845	0	32888	
846	0	32804	
847	0	32756	
848	0	33028	
849	0	32904	
850	0	32948	
851	0	32888	
852	0	32640	
853	0	32529	
854	0	32480	
855	0	32560	
856	0	32600	
857	0	32576	
858	0	32652	
859	0	32892	
860	0	32832	
861	0	32780	
862	0	32936	
863	0	33077	
864	0	32996	
865	0	32886	
866	0	32804	
867	0	32716	
868	0	32709	
869	0	32621	
870	0	32764	
871	0	32736	
872	0	32778	
873	0	32620	
874	0	32597	
875	0	32820	
876	0	32948	
877	0	32796	
878	0	32932	
879	0	33004	
880	0	32844	
881	0	32712	
882	0	32764	
883	0	32637	
884	0	32728	
885	0	32660	
886	0	32812	
887	0	32832	
888	0	32960	
889	0	33060	
890	0	32825	
891	0	32660	
892	0	32708	
893	0	32668	
894	0	32688	
895	0	32712	
896	0	32668	
897	0	32605	
898	0	32648	
899	0	32766	
900	0	32876	
901	0	32864	
902	0	33020	
903	0	32944	
904	0	32788	
905	0	32676	
906	0	32588	
907	0	32606	
908	0	32900	
909	0	32948	
910	0	33000	
911	0	32892	
912	0	32832	
913	0	32732	
914	0	32668	
915	0	32600	
916	0	32604	
917	0	32582	
918	0	32677	
919	0	32736	
920	0	32908	
921	0	32920	
922	0	32886	
923	0	32892	
924	0	32940	
925	0	32921	
926	0	32732	
927	0	32664	
928	0	32804	
929	0	32956	
930	0	32748	
931	0	32656	
932	0	32640	
933	0	32614	
934	0	32478	
935	0	32570	
936	0	32676	
937	0	32740	
938	0	33220	
939	0	33209	
940	0	33036	
941	0	32816	
942	0	32752	
943	0	32873	
944	0	32785	
945	0	32856	
946	0	32700	
947	0	32764	
948	0	32968	
949	0	32744	
950	0	32736	
951	0	32652	
952	0	32630	
953	0	32516	
954	0	32404	
955	0	32408	
956	0	32544	
957	0	32684	
958	0	33004	
959	0	32968	
960	0	32824	
961	0	32976	
962	0	33072	
963	0	33336	
964	0	33084	
965	0	32769	
966	0	32688	
967	0	32632	
968	0	32812	
969	0	32700	
970	0	32640	
971	0	32844	
972	0	32868	
973	0	32736	
974	0	32380	
975	0	32412	
976	0	32556	
977	0	32848	
978	0	33108	
979	0	33160	
980	0	32816	
981	0	32817	
982	0	32772	
983	0	32802	
984	0	32744	
985	0	32832	
986	0	32856	
987	0	32784	
988	0	32840	
989	0	32716	
990	0	32648	
991	0	32596	
992	0	32636	
993	0	32724	
994	0	32821	
995	0	32756	
996	0	32760	
997	0	32756	
998	0	32812	
999	0	32844	
1000	0	32912	
1001	0	32856	
1002	0	32684	
1003	0	32852	
1004	0	32984	
1005	0	32796	
1006	0	32676	
1007	0	32780	
1008	0	32920	
1009	0	32932	
1010	0	33064	
1011	0	32814	
1012	0	32748	
1013	0	32636	
1014	0	32328	
1015	0	32570	
1016	0	32592	
1017	0	32760	
1018	0	32900	
1019	0	32944	
1020	0	32920	
1021	0	32880	
1022	0	32820	
1023	0	32808	
1024	0	32802	
1025	0	32868	
1026	0	32766	
1027	0	32846	
1028	0	32868	
1029	0	32752	
1030	0	32740	
1031	0	32870	
1032	0	32800	
1033	0	32652	
1034	0	32504	
1035	0	32756	
1036	0	32808	
1037	0	32612	
1038	0	32708	
1039	0	32740	
1040	0	32740	
1041	0	32636	
1042	0	32660	
1043	0	32820	
1044	0	33032	
1045	0	33240	
1046	0	33088	
1047	0	32948	
1048	0	33104	
1049	0	32840	
1050	0	32637	
1051	0	32516	
1052	0	32544	
1053	0	32548	
1054	0	32608	
1055	0	32788	
1056	0	32776	
1057	0	32488	
1058	0	32644	
1059	0	32705	
1060	0	32832	
1061	0	33016	
1062	0	33160	
1063	0	33004	
1064	0	32896	
1065	0	32824	
1066	0	32692	
1067	0	32788	
1068	0	32905	
1069	0	32677	
1070	0	32710	
1071	0	32616	
1072	0	32676	
1073	0	32652	
1074	0	32492	
1075	0	32640	
1076	0	32808	
1077	0	32728	
1078	0	32868	
1079	0	32800	
1080	0	32841	
1081	0	32814	
1082	0	32940	
1083	0	32892	
1084	0	32800	
1085	0	33020	
1086	0	33126	
1087	0	33052	
1088	0	32792	
1089	0	32488	
1090	0	32668	
1091	0	32740	
1092	0	32696	
1093	0	32600	
1094	0	32444	
1095	0	32492	
1096	0	32516	
1097	0	32588	
1098	0	32904	
1099	0	33072	
1100	0	33120	
1101	0	32912	
1102	0	32772	
1103	0	32808	
1104	0	32760	
1105	0	32796	
1106	0	32815	
1107	0	32893	
1108	0	32946	
1109	0	32684	
1110	0	32832	
1111	0	33024	
1112	0	32936	
1113	0	32560	
1114	0	32272	
1115	0	32320	
1116	0	32596	
1117	0	32832	
1118	0	33080	
1119	0	32912	
1120	0	32908	
1121	0	32908	
1122	0	32804	
1123	0	32800	
1124	0	32796	
1125	0	32860	
1126	0	32944	
1127	0	33080	
1128	0	32900	
1129	0	32656	
1130	0	32604	
1131	0	32612	
1132	0	32580	
1133	0	32564	
1134	0	32540	
1135	0	32788	
1136	0	32844	
1137	0	32804	
1138	0	32796	
1139	0	32568	
1140	0	32696	
1141	0	32672	
1142	0	32768	
1143	0	32864	
1144	0	33108	
1145	0	33352	
1146	0	32924	
1147	0	32896	
1148	0	32832	
1149	0	32640	
1150	0	32560	
1151	0	32608	
1152	0	32712	
1153	0	32816	
1154	0	32644	
1155	0	32704	
1156	0	32896	
1157	0	32756	
1158	0	32924	
1159	0	32758	
1160	0	32600	
1161	0	32644	
1162	0	32784	
1163	0	32856	
1164	0	33024	
1165	0	32880	
1166	0	32724	
1167	0	32868	
1168	0	32825	
1169	0	32700	
1170	0	32652	
1171	0	32680	
1172	0	32668	
1173	0	32793	
1174	0	32597	
1175	0	32680	
1176	0	32654	
1177	0	32732	
1178	0	32908	
1179	0	32940	
1180	0	33028	
1181	0	32845	
1182	0	32837	
1183	0	32732	
1184	0	32872	
1185	0	32884	
1186	0	32748	
1187	0	32808	
1188	0	32920	
1189	0	32652	
1190	0	32765	
1191	0	32805	
1192	0	32900	
1193	0	32680	
1194	0	32576	
1195	0	32656	
1196	0	32580	
1197	0	32596	
1198	0	32985	
1199	0	32876	
1200	0	32830	
1201	0	32660	
1202	0	32757	
1203	0	32858	
1204	0	32740	
1205	0	32709	
1206	0	32764	
1207	0	32844	
1208	0	32968	
1209	0	32800	
1210	0	32824	
1211	0	32960	
1212	0	32884	
1213	0	32636	
1214	0	32445	
1215	0	32636	
1216	0	32724	
1217	0	32636	
1218	0	32836	
1219	0	32800	
1220	0	32700	
1221	0	32672	
1222	0	32842	
1223	0	32936	
1224	0	33068	
1225	0	33064	
1226	0	33128	
1227	0	32968	
1228	0	32840	
1229	0	32724	
1230	0	32704	
1231	0	32512	
1232	0	32548	
1233	0	32580	
1234	0	32516	
1235	0	32652	
1236	0	32612	
1237	0	32644	
1238	0	33108	
1239	0	32976	
1240	0	32976	
1241	0	33072	
1242	0	33104	
1243	0	32996	
1244	0	32568	
1245	0	32416	
1246	0	32660	
1247	0	32912	
1248	0	32904	
1249	0	32749	
1250	0	32752	
1251	0	32676	
1252	0	32568	
1253	0	32560	
1254	0	32536	
1255	0	32720	
1256	0	33032	
1257	0	32860	
1258	0	32912	
1259	0	32808	
1260	0	32816	
1261	0	32808	
1262	0	32792	
1263	0	32832	
1264	0	32776	
1265	0	32836	
1266	0	32836	
1267	0	32896	
1268	0	32940	
1269	0	32840	
1270	0	32624	
1271	0	32636	
1272	0	32696	
1273	0	32576	
1274	0	32548	
1275	0	32804	
1276	0	32804	
1277	0	32784	
1278	0	32964	
1279	0	32860	
1280	0	32964	
1281	0	32828	
1282	0	32736	
1283	0	32844	
1284	0	32844	
1285	0	32884	
1286	0	32804	
1287	0	32928	
1288	0	32932	
1289	0	32824	
1290	0	32753	
1291	0	32560	
1292	0	32520	
1293	0	32488	
1294	0	32519	
1295	0	32668	
1296	0	32864	
1297	0	32917	
1298	0	32832	
1299	0	32852	
1300	0	32836	
1301	0	32992	
1302	0	32860	
1303	0	32760	
1304	0	32756	
1305	0	32808	
1306	0	32780	
1307	0	32852	
1308	0	32836	
1309	0	32668	
1310	0	32652	
1311	0	32620	
1312	0	32540	
1313	0	32392	
1314	0	32304	
1315	0	32476	
1316	0	32636	
1317	0	32692	
1318	0	33188	
1319	0	33276	
1320	0	33172	
1321	0	33404	
1322	0	33276	
1323	0	32988	
1324	0	32826	
1325	0	32685	
1326	0	32820	
1327	0	32944	
1328	0	32797	
1329	0	32660	
1330	0	32564	
1331	0	32580	
1332	0	32476	
1333	0	32388	
1334	0	32488	
1335	0	32648	
1336	0	32752	
1337	0	32724	
1338	0	32960	
1339	0	32996	
1340	0	32860	
1341	0	32752	
1342	0	32844	
1343	0	32876	
1344	0	32876	
1345	0	32884	
1346	0	32763	
1347	0	32832	
1348	0	32752	
1349	0	32712	
1350	0	32740	
1351	0	32728	
1352	0	32732	
1353	0	32716	
1354	0	32632	
1355	0	32576	
1356	0	32656	
1357	0	32720	
1358	0	33055	
1359	0	33278	
1360	0	32976	
1361	0	32872	
1362	0	32816	
1363	0	32540	
1364	0	32596	
1365	0	32556	
1366	0	32692	
1367	0	32900	
1368	0	32892	
1369	0	32749	
1370	0	32784	
1371	0	32884	
1372	0	32844	
1373	0	32656	
1374	0	32692	
1375	0	32828	
1376	0	32820	
1377	0	32872	
1378	0	32865	
1379	0	32844	
1380	0	32728	
1381	0	32776	
1382	0	32724	
1383	0	32652	
1384	0	32688	
1385	0	32660	
1386	0	32680	
1387	0	32916	
1388	0	32796	
1389	0	32768	
1390	0	32748	
1391	0	32840	
1392	0	33060	
1393	0	32940	
1394	0	32676	
1395	0	32560	
1396	0	32648	
1397	0	32748	
1398	0	32909	
1399	0	32836	
1400	0	32748	
1401	0	32752	
1402	0	32804	
1403	0	32788	
1404	0	32916	
1405	0	32952	
1406	0	32736	
1407	0	32828	
1408	0	32708	
1409	0	32592	
1410	0	32676	
1411	0	32580	
1412	0	32792	
1413	0	32744	
1414	0	32780	
1415	0	32924	
1416	0	32780	
1417	0	32832	
1418	0	32968	
1419	0	32960	
1420	0	32900	
1421	0	32852	
1422	0	32788	
1423	0	32786	
1424	0	32768	
1425	0	32764	
1426	0	32750	
1427	0	32856	
1428	0	32772	
1429	0	32749	
1430	0	32718	
1431	0	32644	
1432	0	32560	
1433	0	32525	
1434	0	32520	
1435	0	32548	
1436	0	32804	
1437	0	33041	
1438	0	32940	
1439	0	32972	
1440	0	32836	
1441	0	32756	
1442	0	32796	
1443	0	32728	
1444	0	32932	
1445	0	32840	
1446	0	32764	
1447	0	32808	
1448	0	32733	
1449	0	32576	
1450	0	32572	
1451	0	32576	
1452	0	32764	
1453	0	32794	
1454	0	33068	
1455	0	33008	
1456	0	32660	
1457	0	32597	
1458	0	32620	
1459	0	32728	
1460	0	33020	
1461	0	33044	
1462	0	32768	
1463	0	32736	
1464	0	32780	
1465	0	32820	
1466	0	32624	
1467	0	32924	
1468	0	32822	
1469	0	32661	
1470	0	32797	
1471	0	32856	
1472	0	32780	
1473	0	32732	
1474	0	32760	
1475	0	32692	
1476	0	32688	
1477	0	32740	
1478	0	33076	
1479	0	33260	
1480	0	33093	
1481	0	32921	
1482	0	32685	
1483	0	32681	
1484	0	32924	
1485	0	32936	
1486	0	32820	
1487	0	32788	
1488	0	32580	
1489	0	32564	
1490	0	32592	
1491	0	32644	
1492	0	32629	
1493	0	32431	
1494	0	32544	
1495	0	32696	
1496	0	32772	
1497	0	32980	
1498	0	33121	
1499	0	32981	
1500	0	32812	
1501	0	32904	
1502	0	32836	
1503	0	32856	
1504	0	32868	
1505	0	32772	
1506	0	32688	
1507	0	32900	
1508	0	32876	
1509	0	32840	
1510	0	32760	
1511	0	32724	
1512	0	32632	
1513	0	32412	
1514	0	32453	
1515	0	32544	
1516	0	32800	
1517	0	33024	
1518	0	33012	
1519	0	33048	
1520	0	32888	
1521	0	32879	
1522	0	32676	
1523	0	32696	
1524	0	32804	
1525	0	32868	
1526	0	32784	
1527	0	32964	
1528	0	32836	
1529	0	32805	
1530	0	32716	
1531	0	32596	
1532	0	32637	
1533	0	32372	
1534	0	32486	
1535	0	32748	
1536	0	32820	
1537	0	32932	
1538	0	32908	
1539	0	32992	
1540	0	32854	
1541	0	32760	
1542	0	32716	
1543	0	32844	
1544	0	33028	
1545	0	32988	
1546	0	32632	
1547	0	32840	
1548	0	32804	
1549	0	32868	
1550	0	32740	
1551	0	32657	
1552	0	32553	
1553	0	32381	
1554	0	32528	
1555	0	32656	
1556	0	32604	
1557	0	32768	
1558	0	32820	
1559	0	32853	
1560	0	33008	
1561	0	32965	
1562	0	32948	
1563	0	33008	
1564	0	32969	
1565	0	33104	
1566	0	32832	
1567	0	32784	
1568	0	32612	
1569	0	32688	
1570	0	32808	
1571	0	32784	
1572	0	32717	
1573	0	32636	
1574	0	32612	
1575	0	32648	
1576	0	32576	
1577	0	32684	
1578	0	32820	
1579	0	32740	
1580	0	32772	
1581	0	32844	
1582	0	32824	
1583	0	32952	
1584	0	32832	
1585	0	32944	
1586	0	32989	
1587	0	33036	
1588	0	32900	
1589	0	32697	
1590	0	32496	
1591	0	32432	
1592	0	32528	
1593	0	32432	
1594	0	32604	
1595	0	32768	
1596	0	32877	
1597	0	32980	
1598	0	32840	
1599	0	32752	
1600	0	32872	
1601	0	32792	
1602	0	32984	
1603	0	32996	
1604	0	32844	
1605	0	32792	
1606	0	32700	
1607	0	32992	
1608	0	32814	
1609	0	32740	
1610	0	32576	
1611	0	32640	
1612	0	32652	
1613	0	32456	
1614	0	32629	
1615	0	32600	
1616	0	32636	
1617	0	32888	
1618	0	32839	
1619	0	32876	
1620	0	32892	
1621	0	32950	
1622	0	32832	
1623	0	32832	
1624	0	32816	
1625	0	32776	
1626	0	32796	
1627	0	32956	
1628	0	32924	
1629	0	32696	
1630	0	32696	
1631	0	32576	
1632	0	32736	
1633	0	32620	
1634	0	32697	
1635	0	32832	
1636	0	32880	
1637	0	32808	
1638	0	32781	
1639	0	32760	
1640	0	32736	
1641	0	32668	
1642	0	32748	
1643	0	32764	
1644	0	32961	
1645	0	33356	
1646	0	33125	
1647	0	32918	
1648	0	32684	
1649	0	32708	
1650	0	32544	
1651	0	32417	
1652	0	32480	
1653	0	32432	
1654	0	32520	
1655	0	32600	
1656	0	32628	
1657	0	33144	
1658	0	33301	
1659	0	33034	
1660	0	32852	
1661	0	32714	
1662	0	32712	
1663	0	32780	
1664	0	32836	
1665	0	32881	
1666	0	32852	
1667	0	32792	
1668	0	32708	
1669	0	32856	
1670	0	32778	
1671	0	32616	
1672	0	32696	
1673	0	32756	
1674	0	32622	
1675	0	32588	
1676	0	32628	
1677	0	32816	
1678	0	32928	
1679	0	32964	
1680	0	32952	
1681	0	32864	
1682	0	32688	
1683	0	32703	
1684	0	32692	
1685	0	32836	
1686	0	32948	
1687	0	32961	
1688	0	32772	
1689	0	32684	
1690	0	32684	
1691	0	32744	
1692	0	32756	
1693	0	32588	
1694	0	32672	
1695	0	32848	
1696	0	32732	
1697	0	32740	
1698	0	32848	
1699	0	32976	
1700	0	32928	
1701	0	32860	
1702	0	32764	
1703	0	32796	
1704	0	32884	
1705	0	32832	
1706	0	32820	
1707	0	32888	
1708	0	32708	
1709	0	32596	
1710	0	32652	
1711	0	32696	
1712	0	32780	
1713	0	32629	
1714	0	32592	
1715	0	32632	
1716	0	32644	
1717	0	32744	
1718	0	32916	
1719	0	33004	
1720	0	33060	
1721	0	33280	
1722	0	33044	
1723	0	32799	
1724	0	32768	
1725	0	32704	
1726	0	32601	
1727	0	32676	
1728	0	32756	
1729	0	32760	
1730	0	32600	
1731	0	32600	
1732	0	32504	
1733	0	32488	
1734	0	32588	
1735	0	32748	
1736	0	32680	
1737	0	32960	
1738	0	33033	
1739	0	33000	
1740	0	33036	
1741	0	32924	
1742	0	32880	
1743	0	32812	
1744	0	32852	
1745	0	32828	
1746	0	32808	
1747	0	32920	
1748	0	32784	
1749	0	32748	
1750	0	32604	
1751	0	32676	
1752	0	32740	
1753	0	32486	
1754	0	32720	
1755	0	32804	
1756	0	32736	
1757	0	32960	
1758	0	32776	
1759	0	32736	
1760	0	32696	
1761	0	32692	
1762	0	32768	
1763	0	32980	
1764	0	33048	
1765	0	32916	
1766	0	32888	
1767	0	32764	
1768	0	32694	
1769	0	32704	
1770	0	32865	
1771	0	32812	
1772	0	32600	
1773	0	32552	
1774	0	32640	
1775	0	32728	
1776	0	32670	
1777	0	32788	
1778	0	32804	
1779	0	32892	
1780	0	32936	
1781	0	32800	
1782	0	32728	
1783	0	32761	
1784	0	32780	
1785	0	32668	
1786	0	32784	
1787	0	32872	
1788	0	32816	
1789	0	33076	
1790	0	32908	
1791	0	32709	
1792	0	32596	
1793	0	32456	
1794	0	32660	
1795	0	32724	
1796	0	32880	
1797	0	32997	
1798	0	32876	
1799	0	32736	
1800	0	32714	
1801	0	32736	
1802	0	32870	
1803	0	33016	
1804	0	32952	
1805	0	32940	
1806	0	32784	
1807	0	32752	
1808	0	32792	
1809	0	32686	
1810	0	32669	
1811	0	32725	
1812	0	32636	
1813	0	32524	
1814	0	32688	
1815	0	32724	
1816	0	32660	
1817	0	32876	
1818	0	33028	
1819	0	33120	
1820	0	33140	
1821	0	32868	
1822	0	32604	
1823	0	32536	
1824	0	32676	
1825	0	32752	
1826	0	32812	
1827	0	32704	
1828	0	32672	
1829	0	32768	
1830	0	32892	
1831	0	32872	
1832	0	32656	
1833	0	32560	
1834	0	32736	
1835	0	32637	
1836	0	32616	
1837	0	32808	
1838	0	32976	
1839	0	32884	
1840	0	32800	
1841	0	32764	
1842	0	32812	
1843	0	32828	
1844	0	33007	
1845	0	32984	
1846	0	33080	
1847	0	32908	
1848	0	32736	
1849	0	32712	
1850	0	32584	
1851	0	32648	
1852	0	32552	
1853	0	32444	
1854	0	32620	
1855	0	32712	
1856	0	32932	
1857	0	32904	
1858	0	32856	
1859	0	33024	
1860	0	33020	
1861	0	32848	
1862	0	32717	
1863	0	32740	
1864	0	32856	
1865	0	32832	
1866	0	32964	
1867	0	32961	
1868	0	32840	
1869	0	32568	
1870	0	32580	
1871	0	32646	
1872	0	32580	
1873	0	32549	
1874	0	32664	
1875	0	32732	
1876	0	32720	
1877	0	32869	
1878	0	32908	
1879	0	32868	
1880	0	32810	
1881	0	32852	
1882	0	32860	
1883	0	32848	
1884	0	32872	
1885	0	32869	
1886	0	32868	
1887	0	32740	
1888	0	32604	
1889	0	32640	
1890	0	32580	
1891	0	32704	
1892	0	32804	
1893	0	32788	
1894	0	32745	
1895	0	32836	
1896	0	33148	
1897	0	33024	
1898	0	32740	
1899	0	32773	
1900	0	32784	
1901	0	32864	
1902	0	32800	
1903	0	32772	
1904	0	32716	
1905	0	32840	
1906	0	32712	
1907	0	32732	
1908	0	32580	
1909	0	32576	
1910	0	32480	
1911	0	32644	
1912	0	32772	
1913	0	32848	
1914	0	33061	
1915	0	32904	
1916	0	32892	
1917	0	33252	
1918	0	33044	
1919	0	32860	
1920	0	32637	
1921	0	32612	
1922	0	32736	
1923	0	32752	
1924	0	32840	
1925	0	32752	
1926	0	32813	
1927	0	32788	
1928	0	32748	
1929	0	32616	
1930	0	32600	
1931	0	32646	
1932	0	32584	
1933	0	32832	
1934	0	32888	
1935	0	32812	
1936	0	32764	
1937	0	32924	
1938	0	32788	
1939	0	32764	
1940	0	32704	
1941	0	32780	
1942	0	32792	
1943	0	32844	
1944	0	32744	
1945	0	32758	
1946	0	32876	
1947	0	33020	
1948	0	32952	
1949	0	32704	
1950	0	32654	
1951	0	32732	
1952	0	32620	
1953	0	32584	
1954	0	32640	
1955	0	32652	
1956	0	32728	
1957	0	32792	
1958	0	32600	
1959	0	32876	
1960	0	32933	
1961	0	32886	
1962	0	32960	
1963	0	32920	
1964	0	32976	
1965	0	32944	
1966	0	32918	
1967	0	32808	
1968	0	32732	
1969	0	32648	
1970	0	32596	
1971	0	32632	
1972	0	32536	
1973	0	32732	
1974	0	32932	
1975	0	32824	
1976	0	32812	
1977	0	32750	
1978	0	32781	
1979	0	32740	
1980	0	32676	
1981	0	32760	
1982	0	32912	
1983	0	32869	
1984	0	32784	
1985	0	32660	
1986	0	32712	
1987	0	32664	
1988	0	32684	
1989	0	32752	
1990	0	32876	
1991	0	32892	
1992	0	32782	
1993	0	32668	
1994	0	32708	
1995	0	32656	
1996	0	32713	
1997	0	32832	
1998	0	33012	
1999	0	33056	
2000	0	32924	
2001	0	32804	
2002	0	32940	
2003	0	32804	
2004	0	32604	
2005	0	32456	
2006	0	32844	
2007	0	33016	
2008	0	32760	
2009	0	32688	
2010	0	32661	
2011	0	32688	
2012	0	32544	
2013	0	32646	
2014	0	32868	
2015	0	33020	
2016	0	33020	
2017	0	32877	
2018	0	32862	
2019	0	32812	
2020	0	32744	
2021	0	32736	
2022	0	32660	
2023	0	32844	
2024	0	32748	
2025	0	32741	
2026	0	32873	
2027	0	32804	
2028	0	32740	
2029	0	32768	
2030	0	32612	
2031	0	32704	
2032	0	32636	
2033	0	32696	
2034	0	32768	
2035	0	32996	
2036	0	32877	
2037	0	32833	
2038	0	32726	
2039	0	32704	
2040	0	32840	
2041	0	32796	
2042	0	32808	
2043	0	32824	
2044	0	32744	
2045	0	32788	
2046	0	32856	
2047	0	32621	
2048	0	32800	
2049	0	32769	
2050	0	32764	
2051	0	32764	
2052	0	32800	
2053	0	32812	
2054	0	32756	
2055	0	32772	
2056	0	32852	
2057	0	32868	
2058	0	32796	
2059	0	32780	
2060	0	32720	
2061	0	32633	
2062	0	32557	
2063	0	32729	
2064	0	32889	
2065	0	33032	
2066	0	33088	
2067	0	32880	
2068	0	32792	
2069	0	32609	
2070	0	32644	
2071	0	32796	
2072	0	32580	
2073	0	32544	
2074	0	32525	
2075	0	32800	
2076	0	32908	
2077	0	32909	
2078	0	32813	
2079	0	32836	
2080	0	32848	
2081	0	32733	
2082	0	32748	
2083	0	32833	
2084	0	32857	
2085	0	32974	
2086	0	32972	
2087	0	32860	
2088	0	32757	
2089	0	32608	
2090	0	32668	
2091	0	32784	
2092	0	32588	
2093	0	32661	
2094	0	32601	
2095	0	32620	
2096	0	32676	
2097	0	32708	
2098	0	32864	
2099	0	33072	
2100	0	33000	
2101	0	32924	
2102	0	32828	
2103	0	32764	
2104	0	32752	
2105	0	32824	
2106	0	32988	
2107	0	32760	
2108	0	33052	
2109	0	32933	
2110	0	32684	
2111	0	32740	
2112	0	32741	
2113	0	32728	
2114	0	32584	
2115	0	32797	
2116	0	32816	
2117	0	32804	
2118	0	32832	
2119	0	32768	
2120	0	32728	
2121	0	32800	
2122	0	32812	
2123	0	32724	
2124	0	32744	
2125	0	32716	
2126	0	32916	
2127	0	32812	
2128	0	32804	
2129	0	32700	
2130	0	32592	
2131	0	32592	
2132	0	32504	
2133	0	32768	
2134	0	32884	
2135	0	32928	
2136	0	32956	
2137	0	32952	
2138	0	32876	
2139	0	32796	
2140	0	32672	
2141	0	32636	
2142	0	32688	
2143	0	32844	
2144	0	32836	
2145	0	32912	
2146	0	33160	
2147	0	33112	
2148	0	32812	
2149	0	32608	
2150	0	32568	
2151	0	32544	
2152	0	32420	
2153	0	32516	
2154	0	32784	
2155	0	33118	
2156	0	33048	
2157	0	32869	
2158	0	32780	
2159	0	32572	
2160	0	32761	
2161	0	32608	
2162	0	32760	
2163	0	32857	
2164	0	32892	
2165	0	32912	
2166	0	32956	
2167	0	32820	
2168	0	32708	
2169	0	32720	
2170	0	32788	
2171	0	32772	
2172	0	32536	
2173	0	32692	
2174	0	32768	
2175	0	32728	
2176	0	32904	
2177	0	32908	
2178	0	32644	
2179	0	32564	
2180	0	32676	
2181	0	32860	
2182	0	32964	
2183	0	33168	
2184	0	33033	
2185	0	32804	
2186	0	32932	
2187	0	32648	
2188	0	32472	
2189	0	32568	
2190	0	32600	
2191	0	32672	
2192	0	32564	
2193	0	32592	
2194	0	32724	
2195	0	32824	
2196	0	32824	
2197	0	32968	
2198	0	32940	
2199	0	32808	
2200	0	32784	
2201	0	32980	
2202	0	33020	
2203	0	33212	
2204	0	32936	
2205	0	32702	
2206	0	32860	
2207	0	32708	
2208	0	32632	
2209	0	32536	
2210	0	32436	
2211	0	32576	
2212	0	32564	
2213	0	32800	
2214	0	32758	
2215	0	32732	
2216	0	32644	
2217	0	32724	
2218	0	32716	
2219	0	32824	
2220	0	32845	
2221	0	32868	
2222	0	32968	
2223	0	32964	
2224	0	32804	
2225	0	32972	
2226	0	33192	
2227	0	32824	
2228	0	32704	
2229	0	32676	
2230	0	32704	
2231	0	32552	
2232	0	32452	
2233	0	32692	
2234	0	32750	
2235	0	32908	
2236	0	32868	
2237	0	32836	
2238	0	32792	
2239	0	32828	
2240	0	32912	
2241	0	32916	
2242	0	32956	
2243	0	32838	
2244	0	32748	
2245	0	32817	
2246	0	32832	
2247	0	32800	
2248	0	32812	
2249	0	32686	
2250	0	32616	
2251	0	32597	
2252	0	32396	
2253	0	32540	
2254	0	32640	
2255	0	32676	
2256	0	32804	
2257	0	32932	
2258	0	32864	
2259	0	32988	
2260	0	33132	
2261	0	33024	
2262	0	32933	
2263	0	32845	
2264	0	32848	
2265	0	32774	
2266	0	32972	
2267	0	32756	
2268	0	32656	
2269	0	32548	
2270	0	32720	
2271	0	32712	
2272	0	32540	
2273	0	32552	
2274	0	32660	
2275	0	32668	
2276	0	32888	
2277	0	33000	
2278	0	32968	
2279	0	32765	
2280	0	32748	
2281	0	32888	
2282	0	32816	
2283	0	32828	
2284	0	32720	
2285	0	32724	
2286	0	32804	
2287	0	32624	
2288	0	32628	
2289	0	32764	
2290	0	32800	
2291	0	32776	
2292	0	32520	
2293	0	32804	
2294	0	32800	
2295	0	32784	
2296	0	32904	
2297	0	32908	
2298	0	32844	
2299	0	32848	
2300	0	32756	
2301	0	32768	
2302	0	32748	
2303	0	32752	
2304	0	32724	
2305	0	32797	
2306	0	32876	
2307	0	32790	
2308	0	32904	
2309	0	32844	
2310	0	32708	
2311	0	32584	
2312	0	32430	
2313	0	32812	
2314	0	32966	
2315	0	32704	
2316	0	32716	
2317	0	32776	
2318	0	32836	
2319	0	32768	
2320	0	32804	
2321	0	32881	
2322	0	32944	
2323	0	32900	
2324	0	32752	
2325	0	32796	
2326	0	32896	
2327	0	32692	
2328	0	32544	
2329	0	32588	
2330	0	32616	
2331	0	32648	
2332	0	32580	
2333	0	32832	
2334	0	33000	
2335	0	32780	
2336	0	32868	
2337	0	32937	
2338	0	32884	
2339	0	32796	
2340	0	32852	
2341	0	32844	
2342	0	32844	
2343	0	32796	
2344	0	32820	
2345	0	32872	
2346	0	32837	
2347	0	32688	
2348	0	32753	
2349	0	32684	
2350	0	32736	
2351	0	32692	
2352	0	32580	
2353	0	32692	
2354	0	32672	
2355	0	32536	
2356	0	32756	
2357	0	32800	
2358	0	32884	
2359	0	32956	
2360	0	32824	
2361	0	32924	
2362	0	33052	
2363	0	33016	
2364	0	33048	
2365	0	32952	
2366	0	32864	
2367	0	32636	
2368	0	32660	
2369	0	32576	
2370	0	32623	
2371	0	32536	
2372	0	32348	
2373	0	32485	
2374	0	32652	
2375	0	32768	
2376	0	33264	
2377	0	32996	
2378	0	32748	
2379	0	32848	
2380	0	32880	
2381	0	32700	
2382	0	32820	
2383	0	32752	
2384	0	32820	
2385	0	32916	
2386	0	33072	
2387	0	32892	
2388	0	32784	
2389	0	32676	
2390	0	32700	
2391	0	32576	
2392	0	32458	
2393	0	32612	
2394	0	32788	
2395	0	32748	
2396	0	32932	
2397	0	32828	
2398	0	32764	
2399	0	32788	
2400	0	32780	
2401	0	32800	
2402	0	32980	
2403	0	32960	
2404	0	32984	
2405	0	32972	
2406	0	32864	
2407	0	32568	
2408	0	32516	
2409	0	32540	
2410	0	32548	
2411	0	32676	
2412	0	32478	
2413	0	32616	
2414	0	32744	
2415	0	32848	
2416	0	33080	
2417	0	33052	
2418	0	32972	
2419	0	32844	
2420	0	32860	
2421	0	32932	
2422	0	32976	
2423	0	32840	
2424	0	32572	
2425	0	32712	
2426	0	32765	
2427	0	32580	
2428	0	32564	
2429	0	32680	
2430	0	32716	
2431	0	32953	
2432	0	32720	
2433	0	32623	
2434	0	32752	
2435	0	32732	
2436	0	33120	
2437	0	33140	
2438	0	32928	
2439	0	32808	
2440	0	32608	
2441	0	32684	
2442	0	32792	
2443	0	32956	
2444	0	32884	
2445	0	32808	
2446	0	32652	
2447	0	32524	
2448	0	32712	
2449	0	32720	
2450	0	32868	
2451	0	32716	
2452	0	32452	
2453	0	32448	
2454	0	32622	
2455	0	32710	
2456	0	32936	
2457	0	33128	
2458	0	33012	
2459	0	32900	
2460	0	32792	
2461	0	32712	
2462	0	32648	
2463	0	32776	
2464	0	32808	
2465	0	33057	
2466	0	32970	
2467	0	33092	
2468	0	33012	
2469	0	32796	
2470	0	32776	
2471	0	32556	
2472	0	32496	
2473	0	32588	
2474	0	32624	
2475	0	32628	
2476	0	32884	
2477	0	32852	
2478	0	32812	
2479	0	32992	
2480	0	32880	
2481	0	32826	
2482	0	32880	
2483	0	32710	
2484	0	32685	
2485	0	32854	
2486	0	32796	
2487	0	32752	
2488	0	32644	
2489	0	32596	
2490	0	32644	
2491	0	32612	
2492	0	32592	
2493	0	32736	
2494	0	33012	
2495	0	32876	
2496	0	32852	
2497	0	32820	
2498	0	32768	
2499	0	32857	
2500	0	32740	
2501	0	32908	
2502	0	32844	
2503	0	32972	
2504	0	32892	
2505	0	32909	
2506	0	32948	
2507	0	32733	
2508	0	32637	
2509	0	32760	
2510	0	32732	
2511	0	32608	
2512	0	32540	
2513	0	32638	
2514	0	32712	
2515	0	32692	
2516	0	32864	
2517	0	32808	
2518	0	32804	
2519	0	32909	
2520	0	32884	
2521	0	32976	
2522	0	33084	
2523	0	32822	
2524	0	32740	
2525	0	32852	
2526	0	32828	
2527	0	32700	
2528	0	32720	
2529	0	32472	
2530	0	32373	
2531	0	32356	
2532	0	32524	
2533	0	32748	
2534	0	33084	
2535	0	33220	
2536	0	33012	
2537	0	32924	
2538	0	32828	
2539	0	33007	
2540	0	32822	
2541	0	32740	
2542	0	32620	
2543	0	32572	
2544	0	32768	
2545	0	33064	
2546	0	33204	
2547	0	32900	
2548	0	32608	
2549	0	32632	
2550	0	32752	
2551	0	32488	
2552	0	32460	
2553	0	32568	
2554	0	32568	
2555	0	32820	
2556	0	32824	
2557	0	32775	
2558	0	33028	
2559	0	33088	
2560	0	32964	
2561	0	32788	
2562	0	32832	
2563	0	32868	
2564	0	32908	
2565	0	32964	
2566	0	32816	
2567	0	32608	
2568	0	32636	
2569	0	32732	
2570	0	32760	
2571	0	32577	
2572	0	32604	
2573	0	32702	
2574	0	32716	
2575	0	32800	
2576	0	32924	
2577	0	32828	
2578	0	32901	
2579	0	32968	
2580	0	32856	
2581	0	32880	
2582	0	32842	
2583	0	32800	
2584	0	32816	
2585	0	32872	
2586	0	32936	
2587	0	32873	
2588	0	32628	
2589	0	32572	
2590	0	32760	
2591	0	32444	
2592	0	32420	
2593	0	32584	
2594	0	32665	
2595	0	32800	
2596	0	33053	
2597	0	32849	
2598	0	32788	
2599	0	32924	
2600	0	32940	
2601	0	32940	
2602	0	32900	
2603	0	32828	
2604	0	32864	
2605	0	33008	
2606	0	32669	
2607	0	32488	
2608	0	32649	
2609	0	32700	
2610	0	32604	
2611	0	32496	
2612	0	32492	
2613	0	32692	
2614	0	32916	
2615	0	32872	
2616	0	32920	
2617	0	32812	
2618	0	32856	
2619	0	32832	
2620	0	32841	
2621	0	33032	
2622	0	32884	
2623	0	32676	
2624	0	32544	
2625	0	32776	
2626	0	32856	
2627	0	32928	
2628	0	32740	
2629	0	32860	
2630	0	32536	
2631	0	32357	
2632	0	32540	
2633	0	32676	
2634	0	32985	
2635	0	33148	
2636	0	32992	
2637	0	32796	
2638	0	32724	
2639	0	32720	
2640	0	32764	
2641	0	32724	
2642	0	32728	
2643	0	32724	
2644	0	32861	
2645	0	33173	
2646	0	33132	
2647	0	32788	
2648	0	32624	
2649	0	32644	
2650	0	32688	
2651	0	32592	
2652	0	32684	
2653	0	32748	
2654	0	32734	
2655	0	32756	
2656	0	32780	
2657	0	32720	
2658	0	32664	
2659	0	32704	
2660	0	32884	
2661	0	32937	
2662	0	32897	
2663	0	32808	
2664	0	32878	
2665	0	33024	
2666	0	32880	
2667	0	32788	
2668	0	32628	
2669	0	32640	
2670	0	32660	
2671	0	32468	
2672	0	32652	
2673	0	32720	
2674	0	32708	
2675	0	32864	
2676	0	32984	
2677	0	32936	
2678	0	32712	
2679	0	32704	
2680	0	32696	
2681	0	32764	
2682	0	32792	
2683	0	32804	
2684	0	32924	
2685	0	33116	
2686	0	33036	
2687	0	32796	
2688	0	32404	
2689	0	32444	
2690	0	32620	
2691	0	32552	
2692	0	32629	
2693	0	32700	
2694	0	32888	
2695	0	32869	
2696	0	32920	
2697	0	32804	
2698	0	32740	
2699	0	32876	
2700	0	32748	
2701	0	32756	
2702	0	32868	
2703	0	32869	
2704	0	32996	
2705	0	33012	
2706	0	32686	
2707	0	32640	
2708	0	32740	
2709	0	32901	
2710	0	32732	
2711	0	32556	
2712	0	32696	
2713	0	32916	
2714	0	32872	
2715	0	32824	
2716	0	32764	
2717	0	32846	
2718	0	33008	
2719	0	32932	
2720	0	32868	
2721	0	32788	
2722	0	32824	
2723	0	32792	
2724	0	32690	
2725	0	32777	
2726	0	32692	
2727	0	32764	
2728	0	32670	
2729	0	32564	
2730	0	32452	
2731	0	32372	
2732	0	32732	
2733	0	32718	
2734	0	33072	
2735	0	33248	
2736	0	32952	
2737	0	32788	
2738	0	32738	
2739	0	32796	
2740	0	32792	
2741	0	32924	
2742	0	32942	
2743	0	32796	
2744	0	32740	
2745	0	32828	
2746	0	32680	
2747	0	32664	
2748	0	32669	
2749	0	32736	
2750	0	32716	
2751	0	32516	
2752	0	32664	
2753	0	32820	
2754	0	32776	
2755	0	32960	
2756	0	33006	
2757	0	32904	
2758	0	32752	
2759	0	32700	
2760	0	32716	
2761	0	32852	
2762	0	32780	
2763	0	32788	
2764	0	32822	
2765	0	32884	
2766	0	32764	
2767	0	32832	
2768	0	32836	
2769	0	32672	
2770	0	32624	
2771	0	32442	
2772	0	32628	
2773	0	32740	
2774	0	32720	
2775	0	33060	
2776	0	33124	
2777	0	32900	
2778	0	32664	
2779	0	32756	
2780	0	32672	
2781	0	32704	
2782	0	32800	
2783	0	32924	
2784	0	32860	
2785	0	32876	
2786	0	32732	
2787	0	32892	
2788	0	32832	
2789	0	32772	
2790	0	32808	
2791	0	32548	
2792	0	32600	
2793	0	32696	
2794	0	32644	
2795	0	32780	
2796	0	32900	
2797	0	32896	
2798	0	32828	
2799	0	32740	
2800	0	32706	
2801	0	32748	
2802	0	32888	
2803	0	33033	
2804	0	32986	
2805	0	32892	
2806	0	32544	
2807	0	32568	
2808	0	32608	
2809	0	32604	
2810	0	32776	
2811	0	32628	
2812	0	32616	
2813	0	32748	
2814	0	32852	
2815	0	32944	
2816	0	32924	
2817	0	32896	
2818	0	32836	
2819	0	32864	
2820	0	32816	
2821	0	32884	
2822	0	32788	
2823	0	32756	
2824	0	32713	
2825	0	32868	
2826	0	32676	
2827	0	32596	
2828	0	32613	
2829	0	32644	
2830	0	32960	
2831	0	32900	
2832	0	32892	
2833	0	32880	
2834	0	32736	
2835	0	32864	
2836	0	32892	
2837	0	32877	
2838	0	32773	
2839	0	32780	
2840	0	32737	
2841	0	32668	
2842	0	32688	
2843	0	32828	
2844	0	32884	
2845	0	32936	
2846	0	32684	
2847	0	32621	
2848	0	32745	
2849	0	32736	
2850	0	32724	
2851	0	32580	
2852	0	32780	
2853	0	32704	
2854	0	32684	
2855	0	32880	
2856	0	32836	
2857	0	32928	
2858	0	32836	
2859	0	32824	
2860	0	32776	
2861	0	32840	
2862	0	32832	
2863	0	32775	
2864	0	32948	
2865	0	32864	
2866	0	32652	
2867	0	32772	
2868	0	32648	
2869	0	32608	
2870	0	32572	
2871	0	32516	
2872	0	32692	
2873	0	32724	
2874	0	32686	
2875	0	32884	
2876	0	32920	
2877	0	32966	
2878	0	32916	
2879	0	33000	
2880	0	33028	
2881	0	32916	
2882	0	32728	
2883	0	32700	
2884	0	32884	
2885	0	33020	
2886	0	32832	
2887	0	32672	
2888	0	32588	
2889	0	32620	
2890	0	32584	
2891	0	32422	
2892	0	32597	
2893	0	32732	
2894	0	32833	
2895	0	32952	
2896	0	32932	
2897	0	32997	
2898	0	32748	
2899	0	32704	
2900	0	32812	
2901	0	32876	
2902	0	32868	
2903	0	33047	
2904	0	32968	
2905	0	32804	
2906	0	32600	
2907	0	32484	
2908	0	32416	
2909	0	32612	
2910	0	32628	
2911	0	32604	
2912	0	32776	
2913	0	32881	
2914	0	32760	
2915	0	32932	
2916	0	32961	
2917	0	32840	
2918	0	32860	
2919	0	32964	
2920	0	32782	
2921	0	32732	
2922	0	32640	
2923	0	32684	
2924	0	32825	
2925	0	33133	
2926	0	33028	
2927	0	32838	
2928	0	32664	
2929	0	32596	
2930	0	32645	
2931	0	32465	
2932	0	32646	
2933	0	32736	
2934	0	32765	
2935	0	32672	
2936	0	32736	
2937	0	32800	
2938	0	32888	
2939	0	32829	
2940	0	32748	
2941	0	32840	
2942	0	32894	
2943	0	32872	
2944	0	32904	
2945	0	32900	
2946	0	32817	
2947	0	32724	
2948	0	32656	
2949	0	32790	
2950	0	32625	
2951	0	32533	
2952	0	32596	
2953	0	32644	
2954	0	32608	
2955	0	32812	
2956	0	32842	
2957	0	32916	
2958	0	32984	
2959	0	32928	
2960	0	32988	
2961	0	32892	
2962	0	32764	
2963	0	32861	
2964	0	32916	
2965	0	33020	
2966	0	32644	
2967	0	32496	
2968	0	32616	
2969	0	32712	
2970	0	32732	
2971	0	32632	
2972	0	32632	
2973	0	32660	
2974	0	32676	
2975	0	33008	
2976	0	32868	
2977	0	32952	
2978	0	32708	
2979	0	32632	
2980	0	32812	
2981	0	32872	
2982	0	32892	
2983	0	32996	
2984	0	32944	
2985	0	32872	
2986	0	32932	
2987	0	32820	
2988	0	32700	
2989	0	32673	
2990	0	32748	
2991	0	32414	
2992	0	32580	
2993	0	32664	
2994	0	32540	
2995	0	32669	
2996	0	32648	
2997	0	32648	
2998	0	32772	
2999	0	33032	
3000	0	33253	
3001	0	33216	
3002	0	33284	
3003	0	33120	
3004	0	32900	
3005	0	32748	
3006	0	32536	
3007	0	32428	
3008	0	32528	
3009	0	32640	
3010	0	32568	
3011	0	32472	
3012	0	32556	
3013	0	32708	
3014	0	32877	
3015	0	32964	
3016	0	33052	
3017	0	32992	
3018	0	32792	
3019	0	32900	
3020	0	32888	
3021	0	32804	
3022	0	32800	
3023	0	32744	
3024	0	32820	
3025	0	32768	
3026	0	32676	
3027	0	32764	
3028	0	32740	
3029	0	32572	
3030	0	32564	
3031	0	32596	
3032	0	32624	
3033	0	32748	
3034	0	32668	
3035	0	32920	
3036	0	33014	
3037	0	32948	
3038	0	33016	
3039	0	32912	
3040	0	32700	
3041	0	32636	
3042	0	32748	
3043	0	32772	
3044	0	33033	
3045	0	33200	
3046	0	32885	
3047	0	32640	
3048	0	32604	
3049	0	32672	
3050	0	32621	
3051	0	32732	
3052	0	32741	
3053	0	32768	
3054	0	32656	
3055	0	32772	
3056	0	32868	
3057	0	32992	
3058	0	32972	
3059	0	32818	
3060	0	32632	
3061	0	32704	
3062	0	32632	
3063	0	32704	
3064	0	32922	
3065	0	33040	
3066	0	32772	
3067	0	32572	
3068	0	32517	
3069	0	32700	
3070	0	32804	
3071	0	32744	
3072	0	32860	
3073	0	32884	
3074	0	32864	
3075	0	32928	
3076	0	32892	
3077	0	32836	
3078	0	32796	
3079	0	32876	
3080	0	33030	
3081	0	33028	
3082	0	32884	
3083	0	32768	
3084	0	32776	
3085	0	32728	
3086	0	32624	
3087	0	32556	
3088	0	32596	
3089	0	32696	
3090	0	32584	
3091	0	32576	
3092	0	32600	
3093	0	32756	
3094	0	32820	
3095	0	32992	
3096	0	32896	
3097	0	32968	
3098	0	32996	
3099	0	32884	
3100	0	32872	
3101	0	32888	
3102	0	32780	
3103	0	32629	
3104	0	32760	
3105	0	32772	
3106	0	32676	
3107	0	32696	
3108	0	32697	
3109	0	32652	
3110	0	32568	
3111	0	32638	
3112	0	32880	
3113	0	33076	
3114	0	32946	
3115	0	33028	
3116	0	32868	
3117	0	32796	
3118	0	32804	
3119	0	32832	
3120	0	32720	
3121	0	32738	
3122	0	32696	
3123	0	32724	
3124	0	32720	
3125	0	32649	
3126	0	32668	
3127	0	32856	
3128	0	32752	
3129	0	32848	
3130	0	32736	
3131	0	32568	
3132	0	32686	
3133	0	32720	
3134	0	32805	
3135	0	32888	
3136	0	32860	
3137	0	32992	
3138	0	32940	
3139	0	32816	
3140	0	32880	
3141	0	32792	
3142	0	32848	
3143	0	32824	
3144	0	32790	
3145	0	32684	
3146	0	32663	
3147	0	32660	
3148	0	32676	
3149	0	32884	
3150	0	32676	
3151	0	32680	
3152	0	32660	
3153	0	32800	
3154	0	32775	
3155	0	32856	
3156	0	33124	
3157	0	32912	
3158	0	32884	
3159	0	32740	
3160	0	32800	
3161	0	32716	
3162	0	32740	
3163	0	32800	
3164	0	32949	
3165	0	32913	
3166	0	32776	
3167	0	32640	
3168	0	32660	
3169	0	32640	
3170	0	32516	
3171	0	32484	
3172	0	32637	
3173	0	32732	
3174	0	32840	
3175	0	32960	
3176	0	33008	
3177	0	33124	
3178	0	32944	
3179	0	32748	
3180	0	32732	
3181	0	32710	
3182	0	32748	
3183	0	32696	
3184	0	32760	
3185	0	32805	
3186	0	32924	
3187	0	32969	
3188	0	32805	
3189	0	32822	
3190	0	32680	
3191	0	32652	
3192	0	32632	
3193	0	32804	
3194	0	32808	
3195	0	32765	
3196	0	32800	
3197	0	32940	
3198	0	32960	
3199	0	32854	
3200	0	32751	
3201	0	32844	
3202	0	32948	
3203	0	32652	
3204	0	32736	
3205	0	32712	
3206	0	32692	
3207	0	32620	
3208	0	32696	
3209	0	32684	
3210	0	32514	
3211	0	32612	
3212	0	32684	
3213	0	32822	
3214	0	32998	
3215	0	32956	
3216	0	32960	
3217	0	32888	
3218	0	32904	
3219	0	32908	
3220	0	32836	
3221	0	32670	
3222	0	32772	
3223	0	32693	
3224	0	32808	
3225	0	32834	
3226	0	32792	
3227	0	32933	
3228	0	32728	
3229	0	32745	
3230	0	32740	
3231	0	32728	
3232	0	32680	
3233	0	32647	
3234	0	32644	
3235	0	32857	
3236	0	32804	
3237	0	32984	
3238	0	32924	
3239	0	32668	
3240	0	32716	
3241	0	32892	
3242	0	32892	
3243	0	32816	
3244	0	32778	
3245	0	32764	
3246	0	32804	
3247	0	32654	
3248	0	32636	
3249	0	32632	
3250	0	32612	
3251	0	32636	
3252	0	32740	
3253	0	32844	
3254	0	32820	
3255	0	32932	
3256	0	32892	
3257	0	32788	
3258	0	32836	
3259	0	32816	
3260	0	32928	
3261	0	32952	
3262	0	32812	
3263	0	32764	
3264	0	32944	
3265	0	32764	
3266	0	32600	
3267	0	32544	
3268	0	32480	
3269	0	32629	
3270	0	32560	
3271	0	32724	
3272	0	32916	
3273	0	32949	
3274	0	32888	
3275	0	32892	
3276	0	32876	
3277	0	32890	
3278	0	32712	
3279	0	32828	
3280	0	32992	
3281	0	32940	
3282	0	32676	
3283	0	32680	
3284	0	32876	
3285	0	32773	
3286	0	32669	
3287	0	32612	
3288	0	32740	
3289	0	32720	
3290	0	32544	
3291	0	32577	
3292	0	32784	
3293	0	32832	
3294	0	32892	
3295	0	32964	
3296	0	32920	
3297	0	33016	
3298	0	33000	
3299	0	32852	
3300	0	32892	
3301	0	32869	
3302	0	32900	
3303	0	32844	
3304	0	33212	
3305	0	32908	
3306	0	32724	
3307	0	32508	
3308	0	32392	
3309	0	32228	
3310	0	32140	
3311	0	32460	
3312	0	32788	
3313	0	32948	
3314	0	33324	
3315	0	33504	
3316	0	32876	
3317	0	32720	
3318	0	32792	
3319	0	32800	
3320	0	32876	
3321	0	32816	
3322	0	32729	
3323	0	32798	
3324	0	33020	
3325	0	32828	
3326	0	32780	
3327	0	32732	
3328	0	32536	
3329	0	32532	
3330	0	32420	
3331	0	32628	
3332	0	32580	
3333	0	32660	
3334	0	32772	
3335	0	32834	
3336	0	32932	
3337	0	32912	
3338	0	32824	
3339	0	32861	
3340	0	32996	
3341	0	33024	
3342	0	33000	
3343	0	33024	
3344	0	32964	
3345	0	32484	
3346	0	32380	
3347	0	32375	
3348	0	32600	
3349	0	32796	
3350	0	32760	
3351	0	32880	
3352	0	32764	
3353	0	32664	
3354	0	32764	
3355	0	32752	
3356	0	32852	
3357	0	32832	
3358	0	32868	
3359	0	32816	
3360	0	32972	
3361	0	33032	
3362	0	32988	
3363	0	32840	
3364	0	32884	
3365	0	32661	
3366	0	32554	
3367	0	32456	
3368	0	32638	
3369	0	32688	
3370	0	32404	
3371	0	32604	
3372	0	32924	
3373	0	33076	
3374	0	33120	
3375	0	32837	
3376	0	32772	
3377	0	32794	
3378	0	32660	
3379	0	32748	
3380	0	32804	
3381	0	33024	
3382	0	33072	
3383	0	33002	
3384	0	33036	
3385	0	32632	
3386	0	32448	
3387	0	32552	
3388	0	32586	
3389	0	32612	
3390	0	32528	
3391	0	32644	
3392	0	32824	
3393	0	32768	
3394	0	32868	
3395	0	32944	
3396	0	33004	
3397	0	32844	
3398	0	32832	
3399	0	32836	
3400	0	32848	
3401	0	32708	
3402	0	32580	
3403	0	32552	
3404	0	32856	
3405	0	32800	
3406	0	32912	
3407	0	32904	
3408	0	32772	
3409	0	32797	
3410	0	32548	
3411	0	32636	
3412	0	32772	
3413	0	32749	
3414	0	32828	
3415	0	32788	
3416	0	32776	
3417	0	32936	
3418	0	32876	
3419	0	32764	
3420	0	32872	
3421	0	32968	
3422	0	32940	
3423	0	32764	
3424	0	32884	
3425	0	32716	
3426	0	32654	
3427	0	32608	
3428	0	32696	
3429	0	32756	
3430	0	32640	
3431	0	32880	
3432	0	32736	
3433	0	32676	
3434	0	32768	
3435	0	32844	
3436	0	33008	
3437	0	32972	
3438	0	32948	
3439	0	32773	
3440	0	32856	
3441	0	32812	
3442	0	32792	
3443	0	32708	
3444	0	32712	
3445	0	32576	
3446	0	32732	
3447	0	32652	
3448	0	32596	
3449	0	32480	
3450	0	32413	
3451	0	32612	
3452	0	32688	
3453	0	32724	
3454	0	33028	
3455	0	33229	
3456	0	32992	
3457	0	32900	
3458	0	32848	
3459	0	32804	
3460	0	32768	
3461	0	32808	
3462	0	32909	
3463	0	33092	
3464	0	33021	
3465	0	32760	
3466	0	32900	
3467	0	32848	
3468	0	32556	
3469	0	32465	
3470	0	32252	
3471	0	32548	
3472	0	32734	
3473	0	32564	
3474	0	32728	
3475	0	32834	
3476	0	32808	
3477	0	32824	
3478	0	32900	
3479	0	32952	
3480	0	32957	
3481	0	32960	
3482	0	32892	
3483	0	32944	
3484	0	32900	
3485	0	32770	
3486	0	32580	
3487	0	32517	
3488	0	32620	
3489	0	32632	
3490	0	32464	
3491	0	32548	
3492	0	32700	
3493	0	32633	
3494	0	32865	
3495	0	32932	
3496	0	33168	
3497	0	33156	
3498	0	33028	
3499	0	32925	
3500	0	32844	
3501	0	32824	
3502	0	32812	
3503	0	32788	
3504	0	32876	
3505	0	32620	
3506	0	32504	
3507	0	32584	
3508	0	32612	
3509	0	32592	
3510	0	32536	
3511	0	32756	
3512	0	32956	
3513	0	32772	
3514	0	32836	
3515	0	32936	
3516	0	32856	
3517	0	32852	
3518	0	32824	
3519	0	32700	
3520	0	32760	
3521	0	32836	
3522	0	32796	
3523	0	32864	
3524	0	32829	
3525	0	32676	
3526	0	32736	
3527	0	32828	
3528	0	32848	
3529	0	32852	
3530	0	32616	
3531	0	32688	
3532	0	32616	
3533	0	32476	
3534	0	32740	
3535	0	32858	
3536	0	32904	
3537	0	32972	
3538	0	32804	
3539	0	32776	
3540	0	32984	
3541	0	32984	
3542	0	32688	
3543	0	32685	
3544	0	32980	
3545	0	33080	
3546	0	32756	
3547	0	32548	
3548	0	32577	
3549	0	32592	
3550	0	32553	
3551	0	32692	
3552	0	32740	
3553	0	32676	
3554	0	32764	
3555	0	32868	
3556	0	32876	
3557	0	32796	
3558	0	32774	
3559	0	32772	
3560	0	32812	
3561	0	32800	
3562	0	32840	
3563	0	32916	
3564	0	33008	
3565	0	32765	
3566	0	32688	
3567	0	32608	
3568	0	32632	
3569	0	32716	
3570	0	32569	
3571	0	32620	
3572	0	32620	
3573	0	32688	
3574	0	32980	
3575	0	33000	
3576	0	33012	
3577	0	33049	
3578	0	33028	
3579	0	32836	
3580	0	32808	
3581	0	32678	
3582	0	32744	
3583	0	32748	
3584	0	33013	
3585	0	32740	
3586	0	32600	
3587	0	32600	
3588	0	32593	
3589	0	32614	
3590	0	32570	
3591	0	32788	
3592	0	32776	
3593	0	32760	
3594	0	32824	
3595	0	32736	
3596	0	32828	
3597	0	32816	
3598	0	32844	
3599	0	32936	
3600	0	33064	
3601	0	32968	
3602	0	32880	
3603	0	32856	
3604	0	33056	
3605	0	32860	
3606	0	32736	
3607	0	32548	
3608	0	32420	
3609	0	32480	
3610	0	32462	
3611	0	32684	
3612	0	32736	
3613	0	32584	
3614	0	32928	
3615	0	33012	
3616	0	33047	
3617	0	32932	
3618	0	32660	
3619	0	32548	
3620	0	32688	
3621	0	32732	
3622	0	32800	
3623	0	33028	
3624	0	33085	
3625	0	33112	
3626	0	33045	
3627	0	32846	
3628	0	32780	
3629	0	32812	
3630	0	32548	
3631	0	32440	
3632	0	32572	
3633	0	32480	
3634	0	32752	
3635	0	32900	
3636	0	32989	
3637	0	32897	
3638	0	32780	
3639	0	32716	
3640	0	32844	
3641	0	32864	
3642	0	32804	
3643	0	32928	
3644	0	32940	
3645	0	32830	
3646	0	32806	
3647	0	32524	
3648	0	32524	
3649	0	32564	
3650	0	32324	
3651	0	32556	
3652	0	32736	
3653	0	32812	
3654	0	32956	
3655	0	33028	
3656	0	33080	
3657	0	33056	
3658	0	32812	
3659	0	32696	
3660	0	32780	
3661	0	32840	
3662	0	32812	
3663	0	33036	
3664	0	33020	
3665	0	32812	
3666	0	32684	
3667	0	32580	
3668	0	32624	
3669	0	32604	
3670	0	32556	
3671	0	32592	
3672	0	32696	
3673	0	32662	
3674	0	32856	
3675	0	32900	
3676	0	32860	
3677	0	32836	
3678	0	32942	
3679	0	32908	
3680	0	32800	
3681	0	32780	
3682	0	32732	
3683	0	32908	
3684	0	32920	
3685	0	32900	
3686	0	32740	
3687	0	32606	
3688	0	32648	
3689	0	32698	
3690	0	32580	
3691	0	32665	
3692	0	32568	
3693	0	32560	
3694	0	32720	
3695	0	32832	
3696	0	32890	
3697	0	32996	
3698	0	33024	
3699	0	33084	
3700	0	33044	
3701	0	32999	
3702	0	32816	
3703	0	32804	
3704	0	32789	
3705	0	32612	
3706	0	32485	
3707	0	32612	
3708	0	32704	
3709	0	32728	
3710	0	32748	
3711	0	32804	
3712	0	32856	
3713	0	32812	
3714	0	32836	
3715	0	32692	
3716	0	32716	
3717	0	32836	
3718	0	32684	
3719	0	32696	
3720	0	32868	
3721	0	32956	
3722	0	32816	
3723	0	32888	
3724	0	32804	
3725	0	32589	
3726	0	32676	
3727	0	32668	
3728	0	32844	
3729	0	32820	
3730	0	32540	
3731	0	32576	
3732	0	32696	
3733	0	32692	
3734	0	32928	
3735	0	33000	
3736	0	33108	
3737	0	32917	
3738	0	32840	
3739	0	32860	
3740	0	32944	
3741	0	32792	
3742	0	32734	
3743	0	32948	
3744	0	32776	
3745	0	32640	
3746	0	32766	
3747	0	32640	
3748	0	32624	
3749	0	32556	
3750	0	32604	
3751	0	32660	
3752	0	32708	
3753	0	32708	
3754	0	32972	
3755	0	32917	
3756	0	32865	
3757	0	32824	
3758	0	32920	
3759	0	32864	
3760	0	32880	
3761	0	32828	
3762	0	32944	
3763	0	33000	
3764	0	32892	
3765	0	32668	
3766	0	32572	
3767	0	32588	
3768	0	32692	
3769	0	32632	
3770	0	32660	
3771	0	32812	
3772	0	32760	
3773	0	32744	
3774	0	32896	
3775	0	32944	
3776	0	32828	
3777	0	32704	
3778	0	32684	
3779	0	32696	
3780	0	32800	
3781	0	32972	
3782	0	32788	
3783	0	32816	
3784	0	32789	
3785	0	32684	
3786	0	32868	
3787	0	32772	
3788	0	32724	
3789	0	32521	
3790	0	32480	
3791	0	32928	
3792	0	32880	
3793	0	32876	
3794	0	32960	
3795	0	32920	
3796	0	32864	
3797	0	32866	
3798	0	32640	
3799	0	32628	
3800	0	32732	
3801	0	32720	
3802	0	32720	
3803	0	32848	
3804	0	32890	
3805	0	33140	
3806	0	32756	
3807	0	32600	
3808	0	32584	
3809	0	32556	
3810	0	32648	
3811	0	32800	
3812	0	32784	
3813	0	32840	
3814	0	32864	
3815	0	32780	
3816	0	32792	
3817	0	32836	
3818	0	32892	
3819	0	33104	
3820	0	32968	
3821	0	32888	
3822	0	32808	
3823	0	32988	
3824	0	32868	
3825	0	32736	
3826	0	32600	
3827	0	32413	
3828	0	32484	
3829	0	32468	
3830	0	32684	
3831	0	32776	
3832	0	32716	
3833	0	32752	
3834	0	32812	
3835	0	32846	
3836	0	33036	
3837	0	32864	
3838	0	32832	
3839	0	32856	
3840	0	32732	
3841	0	32904	
3842	0	32928	
3843	0	32832	
3844	0	32684	
3845	0	32768	
3846	0	32796	
3847	0	32702	
3848	0	32688	
3849	0	32536	
3850	0	32628	
3851	0	32692	
3852	0	32825	
3853	0	32944	
3854	0	32896	
3855	0	32960	
3856	0	32836	
3857	0	32768	
3858	0	32740	
3859	0	32808	
3860	0	32808	
3861	0	32788	
3862	0	32944	
3863	0	33037	
3864	0	32728	
3865	0	32620	
3866	0	32664	
3867	0	32592	
3868	0	32532	
3869	0	32440	
3870	0	32660	
3871	0	32689	
3872	0	32677	
3873	0	32838	
3874	0	33024	
3875	0	32942	
3876	0	33004	
3877	0	32940	
3878	0	33056	
3879	0	33008	
3880	0	32788	
3881	0	32704	
3882	0	32750	
3883	0	32804	
3884	0	32808	
3885	0	32724	
3886	0	32852	
3887	0	32816	
3888	0	32802	
3889	0	32641	
3890	0	32576	
3891	0	32672	
3892	0	32732	
3893	0	32766	
3894	0	32832	
3895	0	32881	
3896	0	32824	
3897	0	32816	
3898	0	32712	
3899	0	32704	
3900	0	32812	
3901	0	33028	
3902	0	33072	
3903	0	32992	
3904	0	32800	
3905	0	32732	
3906	0	32692	
3907	0	32608	
3908	0	32784	
3909	0	32648	
3910	0	32688	
3911	0	32636	
3912	0	32632	
3913	0	32748	
3914	0	32780	
3915	0	32604	
3916	0	32620	
3917	0	32736	
3918	0	32844	
3919	0	32888	
3920	0	32884	
3921	0	33166	
3922	0	33060	
3923	0	33032	
3924	0	32840	
3925	0	32633	
3926	0	32688	
3927	0	32772	
3928	0	32788	
3929	0	32536	
3930	0	32476	
3931	0	32632	
3932	0	32614	
3933	0	32756	
3934	0	32916	
3935	0	32840	
3936	0	32897	
3937	0	32940	
3938	0	32852	
3939	0	32752	
3940	0	32814	
3941	0	32812	
3942	0	32928	
3943	0	32984	
3944	0	32768	
3945	0	32680	
3946	0	32688	
3947	0	32776	
3948	0	32724	
3949	0	32468	
3950	0	32709	
3951	0	32608	
3952	0	32696	
3953	0	32805	
3954	0	32888	
3955	0	32976	
3956	0	32852	
3957	0	32793	
3958	0	32740	
3959	0	32772	
3960	0	32828	
3961	0	32821	
3962	0	32802	
3963	0	32928	
3964	0	32860	
3965	0	32800	
3966	0	32709	
3967	0	32852	
3968	0	32820	
3969	0	32588	
3970	0	32640	
3971	0	32588	
3972	0	32708	
3973	0	32925	
3974	0	32968	
3975	0	32852	
3976	0	32836	
3977	0	32716	
3978	0	32852	
3979	0	32820	
3980	0	32788	
3981	0	32764	
3982	0	32856	
3983	0	32892	
3984	0	32836	
3985	0	32670	
3986	0	32508	
3987	0	32604	
3988	0	32628	
3989	0	32588	
3990	0	32748	
3991	0	32888	
3992	0	32864	
3993	0	33020	
3994	0	33000	
3995	0	32932	
3996	0	32732	
3997	0	32684	
3998	0	32764	
3999	0	32776	
4000	0	32736	
4001	0	32856	
4002	0	32888	
4003	0	32900	
4004	0	32756	
4005	0	32762	
4006	0	32708	
4007	0	32672	
4008	0	32628	
4009	0	32368	
4010	0	32536	
4011	0	32696	
4012	0	32920	
4013	0	33200	
4014	0	33060	
4015	0	32888	
4016	0	32828	
4017	0	32800	
4018	0	32920	
4019	0	32832	
4020	0	32788	
4021	0	32721	
4022	0	32784	
4023	0	32992	
4024	0	32789	
4025	0	32640	
4026	0	32640	
4027	0	32484	
4028	0	32500	
4029	0	32518	
4030	0	32692	
4031	0	32792	
4032	0	32732	
4033	0	32948	
4034	0	32960	
4035	0	32692	
4036	0	32628	
4037	0	32685	
4038	0	32756	
4039	0	32940	
4040	0	32920	
4041	0	32900	
4042	0	33108	
4043	0	33288	
4044	0	32980	
4045	0	32732	
4046	0	32644	
4047	0	32708	
4048	0	32672	
4049	0	32438	
4050	0	32500	
4051	0	32520	
4052	0	32572	
4053	0	32772	
4054	0	32784	
4055	0	32809	
4056	0	33004	
4057	0	33064	
4058	0	32894	
4059	0	32948	
4060	0	32916	
4061	0	32800	
4062	0	32740	
4063	0	32796	
4064	0	32676	
4065	0	32677	
4066	0	32760	
4067	0	32788	
4068	0	32684	
4069	0	32424	
4070	0	32568	
4071	0	32748	
4072	0	32668	
4073	0	32904	
4074	0	32900	
4075	0	32940	
4076	0	32849	
4077	0	32948	
4078	0	32924	
4079	0	32788	
4080	0	32617	
4081	0	32604	
4082	0	32656	
4083	0	32808	
4084	0	32737	
4085	0	32836	
4086	0	32872	
4087	0	33076	
4088	0	33016	
4089	0	32525	
4090	0	32528	
4091	0	32584	
4092	0	32548	
4093	0	32777	
4094	0	33104	
4095	0	32860	
4096	0	32932	
4097	0	32748	
4098	0	32764	
4099	0	32669	
4100	0	32786	
4101	0	32724	
4102	0	32788	
4103	0	32948	
4104	0	32713	
4105	0	32684	
4106	0	32716	
4107	0	32848	
4108	0	32836	
4109	0	32820	
4110	0	32700	
4111	0	32636	
4112	0	32568	
4113	0	32869	
4114	0	32957	
4115	0	33061	
4116	0	32932	
4117	0	32720	
4118	0	32652	
4119	0	32828	
4120	0	32920	
4121	0	32833	
4122	0	32648	
4123	0	32828	
4124	0	32812	
4125	0	32701	
4126	0	32628	
4127	0	32708	
4128	0	32628	
4129	0	32460	
4130	0	32620	
4131	0	32756	
4132	0	32796	
4133	0	32876	
4134	0	33212	
4135	0	33108	
4136	0	32848	
4137	0	32588	
4138	0	32656	
4139	0	32854	
4140	0	32877	
4141	0	32676	
4142	0	32748	
4143	0	32892	
4144	0	32780	
4145	0	32988	
4146	0	33024	
4147	0	32951	
4148	0	32704	
4149	0	32440	
4150	0	32536	
4151	0	32636	
4152	0	32672	
4153	0	32704	
4154	0	32700	
4155	0	32692	
4156	0	32696	
4157	0	32712	
4158	0	32812	
4159	0	32941	
4160	0	32964	
4161	0	33004	
4162	0	32904	
4163	0	32928	
4164	0	32840	
4165	0	32724	
4166	0	32620	
4167	0	32620	
4168	0	32612	
4169	0	32520	
4170	0	32840	
4171	0	32772	
4172	0	32700	
4173	0	32836	
4174	0	32914	
4175	0	32920	
4176	0	32895	
4177	0	32932	
4178	0	32796	
4179	0	32772	
4180	0	32812	
4181	0	32780	
4182	0	32888	
4183	0	32893	
4184	0	32776	
4185	0	32692	
4186	0	32648	
4187	0	32684	
4188	0	32728	
4189	0	32692	
4190	0	32761	
4191	0	32917	
4192	0	32672	
4193	0	32916	
4194	0	32960	
4195	0	32897	
4196	0	32844	
4197	0	32772	
4198	0	32768	
4199	0	32832	
4200	0	32732	
4201	0	32700	
4202	0	32756	
4203	0	32928	
4204	0	32820	
4205	0	32668	
4206	0	32645	
4207	0	32724	
4208	0	32792	
4209	0	32628	
4210	0	32736	
4211	0	32808	
4212	0	32638	
4213	0	32792	
4214	0	32968	
4215	0	33025	
4216	0	33012	
4217	0	32868	
4218	0	32708	
4219	0	32836	
4220	0	32804	
4221	0	32676	
4222	0	32728	
4223	0	32740	
4224	0	32637	
4225	0	32560	
4226	0	32608	
4227	0	32656	
4228	0	32640	
4229	0	32596	
4230	0	32744	
4231	0	32792	
4232	0	33016	
4233	0	33160	
4234	0	32992	
4235	0	32893	
4236	0	32990	
4237	0	33052	
4238	0	32860	
4239	0	32848	
4240	0	32716	
4241	0	32612	
4242	0	32764	
4243	0	32672	
4244	0	32540	
4245	0	32664	
4246	0	32588	
4247	0	32580	
4248	0	32624	
4249	0	32436	
4250	0	32832	
4251	0	33012	
4252	0	32918	
4253	0	32962	
4254	0	32972	
4255	0	32929	
4256	0	32868	
4257	0	32777	
4258	0	32736	
4259	0	32764	
4260	0	32865	
4261	0	32864	
4262	0	32845	
4263	0	32816	
4264	0	32748	
4265	0	32768	
4266	0	32676	
4267	0	32676	
4268	0	32616	
4269	0	32644	
4270	0	32736	
4271	0	32684	
4272	0	32624	
4273	0	32812	
4274	0	32832	
4275	0	32724	
4276	0	32820	
4277	0	32852	
4278	0	32992	
4279	0	32848	
4280	0	32740	
4281	0	32744	
4282	0	32952	
4283	0	33032	
4284	0	32860	
4285	0	32664	
4286	0	32672	
4287	0	32568	
4288	0	32604	
4289	0	32676	
4290	0	32812	
4291	0	32884	
4292	0	32756	
4293	0	32869	
4294	0	32884	
4295	0	32884	
4296	0	32832	
4297	0	32772	
4298	0	32584	
4299	0	32672	
4300	0	32704	
4301	0	32792	
4302	0	33248	
4303	0	33246	
4304	0	32868	
4305	0	32645	
4306	0	32512	
4307	0	32660	
4308	0	32654	
4309	0	32502	
4310	0	32684	
4311	0	32692	
4312	0	32716	
4313	0	32740	
4314	0	32800	
4315	0	32800	
4316	0	32876	
4317	0	32992	
4318	0	32961	
4319	0	32824	
4320	0	32860	
4321	0	32824	
4322	0	33000	
4323	0	32945	
4324	0	32648	
4325	0	32648	
4326	0	32664	
4327	0	32577	
4328	0	32432	
4329	0	32516	
4330	0	32592	
4331	0	32740	
4332	0	32737	
4333	0	32864	
4334	0	33056	
4335	0	32868	
4336	0	32900	
4337	0	33028	
4338	0	33148	
4339	0	32868	
4340	0	32820	
4341	0	32800	
4342	0	32748	
4343	0	32832	
4344	0	32856	
4345	0	32720	
4346	0	32576	
4347	0	32604	
4348	0	32600	
4349	0	32552	
4350	0	32688	
4351	0	32716	
4352	0	33056	
4353	0	32980	
4354	0	32844	
4355	0	32700	
4356	0	32752	
4357	0	32801	
4358	0	32812	
4359	0	32904	
4360	0	32856	
4361	0	32744	
4362	0	32800	
4363	0	32794	
4364	0	32660	
4365	0	32628	
4366	0	32692	
4367	0	32776	
4368	0	32720	
4369	0	32680	
4370	0	32697	
4371	0	32774	
4372	0	32764	
4373	0	32816	
4374	0	32780	
4375	0	32664	
4376	0	32668	
4377	0	32740	
4378	0	32918	
4379	0	33248	
4380	0	33120	
4381	0	32909	
4382	0	33048	
4383	0	32988	
4384	0	32648	
4385	0	32562	
4386	0	32584	
4387	0	32544	
4388	0	32412	
4389	0	32420	
4390	0	32628	
4391	0	32848	
4392	0	32912	
4393	0	32976	
4394	0	32976	
4395	0	32912	
4396	0	32944	
4397	0	32824	
4398	0	32804	
4399	0	32765	
4400	0	32765	
4401	0	32757	
4402	0	32668	
4403	0	32644	
4404	0	32644	
4405	0	32760	
4406	0	32796	
4407	0	32952	
4408	0	32984	
4409	0	32856	
4410	0	32716	
4411	0	32844	
4412	0	33016	
4413	0	32980	
4414	0	32776	
4415	0	32644	
4416	0	32536	
4417	0	32548	
4418	0	32564	
4419	0	32660	
4420	0	32752	
4421	0	32836	
4422	0	32968	
4423	0	32792	
4424	0	32712	
4425	0	32668	
4426	0	32840	
4427	0	32852	
4428	0	32556	
4429	0	32596	
4430	0	32692	
4431	0	32733	
4432	0	32804	
4433	0	32992	
4434	0	33140	
4435	0	33040	
4436	0	32860	
4437	0	32692	
4438	0	32720	
4439	0	32720	
4440	0	32794	
4441	0	32764	
4442	0	32889	
4443	0	32832	
4444	0	32660	
4445	0	32629	
4446	0	32632	
4447	0	32672	
4448	0	32736	
4449	0	32644	
4450	0	32652	
4451	0	32688	
4452	0	32660	
4453	0	32808	
4454	0	32804	
4455	0	32857	
4456	0	32848	
4457	0	32879	
4458	0	33000	
4459	0	33028	
4460	0	32934	
4461	0	32968	
4462	0	33160	
4463	0	32800	
4464	0	32708	
4465	0	32708	
4466	0	32700	
4467	0	32708	
4468	0	32676	
4469	0	32652	
4470	0	32704	
4471	0	32792	
4472	0	32744	
4473	0	32740	
4474	0	32836	
4475	0	32908	
4476	0	32960	
4477	0	32992	
4478	0	32876	
4479	0	32772	
4480	0	32660	
4481	0	32602	
4482	0	32728	
4483	0	32724	
4484	0	32708	
4485	0	32641	
4486	0	32912	
4487	0	33120	
4488	0	32752	
4489	0	32632	
4490	0	32652	
4491	0	32656	
4492	0	32636	
4493	0	32812	
4494	0	32900	
4495	0	32964	
4496	0	32958	
4497	0	32752	
4498	0	32796	
4499	0	32948	
4500	0	32800	
4501	0	32772	
4502	0	32868	
4503	0	32724	
4504	0	32596	
4505	0	32592	
4506	0	32572	
4507	0	32860	
4508	0	32644	
4509	0	32620	
4510	0	32512	
4511	0	32546	
4512	0	32724	
4513	0	32824	
4514	0	32880	
4515	0	32964	
4516	0	33076	
4517	0	32932	
4518	0	32924	
4519	0	32900	
4520	0	32948	
4521	0	32764	
4522	0	32796	
4523	0	32788	
4524	0	32692	
4525	0	32660	
4526	0	32608	
4527	0	32604	
4528	0	32620	
4529	0	32660	
4530	0	32800	
4531	0	32860	
4532	0	32976	
4533	0	32840	
4534	0	32728	
4535	0	32876	
4536	0	32836	
4537	0	32733	
4538	0	32760	
4539	0	32832	
4540	0	32824	
4541	0	32808	
4542	0	32952	
4543	0	32812	
4544	0	32781	
4545	0	32639	
4546	0	32700	
4547	0	32812	
4548	0	32556	
4549	0	32608	
4550	0	32704	
4551	0	32704	
4552	0	32820	
4553	0	32796	
4554	0	32788	
4555	0	32894	
4556	0	32920	
4557	0	32808	
4558	0	32796	
4559	0	32868	
4560	0	32800	
4561	0	32777	
4562	0	32892	
4563	0	32852	
4564	0	32796	
4565	0	32886	
4566	0	32612	
4567	0	32640	
4568	0	32492	
4569	0	32408	
4570	0	32684	
4571	0	32856	
4572	0	32960	
4573	0	33173	
4574	0	33236	
4575	0	32948	
4576	0	32840	
4577	0	32630	
4578	0	32632	
4579	0	32768	
4580	0	32688	
4581	0	32757	
4582	0	32944	
4583	0	32881	
4584	0	32844	
4585	0	32852	
4586	0	32772	
4587	0	32632	
4588	0	32344	
4589	0	32408	
4590	0	32644	
4591	0	32868	
4592	0	32960	
4593	0	33052	
4594	0	32924	
4595	0	32808	
4596	0	32748	
4597	0	32694	
4598	0	32604	
4599	0	32712	
4600	0	32892	
4601	0	33089	
4602	0	33408	
4603	0	32912	
4604	0	32724	
4605	0	32584	
4606	0	32556	
4607	0	32564	
4608	0	32440	
4609	0	32488	
4610	0	32668	
4611	0	32733	
4612	0	32916	
4613	0	32960	
4614	0	32836	
4615	0	32892	
4616	0	32888	
4617	0	32884	
4618	0	33000	
4619	0	32888	
4620	0	32789	
4621	0	32856	
4622	0	32969	
4623	0	32830	
4624	0	32752	
4625	0	32716	
4626	0	32532	
4627	0	32672	
4628	0	32452	
4629	0	32549	
4630	0	32600	
4631	0	32578	
4632	0	32836	
4633	0	32944	
4634	0	32844	
4635	0	32876	
4636	0	32893	
4637	0	32900	
4638	0	32756	
4639	0	32920	
4640	0	32836	
4641	0	32812	
4642	0	32901	
4643	0	32768	
4644	0	32652	
4645	0	32648	
4646	0	32664	
4647	0	32772	
4648	0	32584	
4649	0	32700	
4650	0	32936	
4651	0	32764	
4652	0	32792	
4653	0	32922	
4654	0	32837	
4655	0	32692	
4656	0	32760	
4657	0	32816	
4658	0	32745	
4659	0	32944	
4660	0	32884	
4661	0	32900	
4662	0	33012	
4663	0	32804	
4664	0	32712	
4665	0	32712	
4666	0	32637	
4667	0	32616	
4668	0	32542	
4669	0	32720	
4670	0	32852	
4671	0	32728	
4672	0	32653	
4673	0	32712	
4674	0	32866	
4675	0	32828	
4676	0	32900	
4677	0	32948	
4678	0	32784	
4679	0	32656	
4680	0	32588	
4681	0	32608	
4682	0	32888	
4683	0	32820	
4684	0	33016	
4685	0	32997	
4686	0	32896	
4687	0	32824	
4688	0	32604	
4689	0	32584	
4690	0	32564	
4691	0	32600	
4692	0	32924	
4693	0	33044	
4694	0	32944	
4695	0	32832	
4696	0	32804	
4697	0	32836	
4698	0	32836	
4699	0	32776	
4700	0	32776	
4701	0	32830	
4702	0	32880	
4703	0	32780	
4704	0	32652	
4705	0	32616	
4706	0	32661	
4707	0	32696	
4708	0	32576	
4709	0	32740	
4710	0	32704	
4711	0	32694	
4712	0	32856	
4713	0	32940	
4714	0	32940	
4715	0	32812	
4716	0	32684	
4717	0	32684	
4718	0	32856	
4719	0	32852	
4720	0	32864	
4721	0	32996	
4722	0	33100	
4723	0	32804	
4724	0	32516	
4725	0	32428	
4726	0	32464	
4727	0	32704	
4728	0	32821	
4729	0	32790	
4730	0	32868	
4731	0	32752	
4732	0	32924	
4733	0	32916	
4734	0	32772	
4735	0	32716	
4736	0	32688	
4737	0	32792	
4738	0	32845	
4739	0	33036	
4740	0	33008	
4741	0	32828	
4742	0	32868	
4743	0	32744	
4744	0	32508	
4745	0	32510	
4746	0	32544	
4747	0	32677	
4748	0	32712	
4749	0	32904	
4750	0	32896	
4751	0	32700	
4752	0	32720	
4753	0	32672	
4754	0	32736	
4755	0	32944	
4756	0	32945	
4757	0	32796	
4758	0	32910	
4759	0	32932	
4760	0	32832	
4761	0	32788	
4762	0	32992	
4763	0	32680	
4764	0	32708	
4765	0	32676	
4766	0	32696	
4767	0	32684	
4768	0	32629	
4769	0	32704	
4770	0	32628	
4771	0	32532	
4772	0	32852	
4773	0	33012	
4774	0	32896	
4775	0	33040	
4776	0	33008	
4777	0	32820	
4778	0	32876	
4779	0	32664	
4780	0	32646	
4781	0	32724	
4782	0	32956	
4783	0	32864	
4784	0	32760	
4785	0	32692	
4786	0	32608	
4787	0	32632	
4788	0	32600	
4789	0	32688	
4790	0	32784	
4791	0	32660	
4792	0	32776	
4793	0	32960	
4794	0	32972	
4795	0	32896	
4796	0	32908	
4797	0	32792	
4798	0	32744	
4799	0	32804	
4800	0	32798	
4801	0	32796	
4802	0	32936	
4803	0	32800	
4804	0	32776	
4805	0	32596	
4806	0	32516	
4807	0	32684	
4808	0	32538	
4809	0	32669	
4810	0	32909	
4811	0	33024	
4812	0	32998	
4813	0	32872	
4814	0	32812	
4815	0	32716	
4816	0	32724	
4817	0	32724	
4818	0	32861	
4819	0	32916	
4820	0	32852	
4821	0	32858	
4822	0	32932	
4823	0	32768	
4824	0	32640	
4825	0	32573	
4826	0	32784	
4827	0	32592	
4828	0	32521	
4829	0	32832	
4830	0	32736	
4831	0	32640	
4832	0	32788	
4833	0	32688	
4834	0	32776	
4835	0	32885	
4836	0	32880	
4837	0	32924	
4838	0	33049	
4839	0	32952	
4840	0	32836	
4841	0	32820	
4842	0	32720	
4843	0	32569	
4844	0	32769	
4845	0	32860	
4846	0	32672	
4847	0	32740	
4848	0	32638	
4849	0	32564	
4850	0	32704	
4851	0	32657	
4852	0	32813	
4853	0	32960	
4854	0	32838	
4855	0	32740	
4856	0	32912	
4857	0	33072	
4858	0	32933	
4859	0	32684	
4860	0	32695	
4861	0	32934	
4862	0	32948	
4863	0	32861	
4864	0	32828	
4865	0	32700	
4866	0	32684	
4867	0	32644	
4868	0	32404	
4869	0	32524	
4870	0	32692	
4871	0	32680	
4872	0	33060	
4873	0	33052	
4874	0	32982	
4875	0	32789	
4876	0	32756	
4877	0	32704	
4878	0	32796	
4879	0	32888	
4880	0	32836	
4881	0	32748	
4882	0	32832	
4883	0	32720	
4884	0	32712	
4885	0	32684	
4886	0	32672	
4887	0	32652	
4888	0	32509	
4889	0	32692	
4890	0	32788	
4891	0	32656	
4892	0	33036	
4893	0	32960	
4894	0	32956	
4895	0	32860	
4896	0	32864	
4897	0	32796	
4898	0	32736	
4899	0	32644	
4900	0	32808	
4901	0	32832	
4902	0	32928	
4903	0	32858	
4904	0	32896	
4905	0	32880	
4906	0	32728	
4907	0	32637	
4908	0	32584	
4909	0	33021	
4910	0	32832	
4911	0	32509	
4912	0	32574	
4913	0	32580	
4914	0	32652	
4915	0	32748	
4916	0	32852	
4917	0	32917	
4918	0	32960	
4919	0	32860	
4920	0	32824	
4921	0	32864	
4922	0	32836	
4923	0	32644	
4924	0	32708	
4925	0	32752	
4926	0	32926	
4927	0	32924	
4928	0	32608	
4929	0	32584	
4930	0	32616	
4931	0	32522	
4932	0	32752	
4933	0	32944	
4934	0	33044	
4935	0	32888	
4936	0	32748	
4937	0	32772	
4938	0	32844	
4939	0	32797	
4940	0	32768	
4941	0	33022	
4942	0	32978	
4943	0	32960	
4944	0	32916	
4945	0	32740	
4946	0	32560	
4947	0	32652	
4948	0	32544	
4949	0	32593	
4950	0	32632	
4951	0	32704	
4952	0	32948	
4953	0	32848	
4954	0	32836	
4955	0	32942	
4956	0	32876	
4957	0	32678	
4958	0	32790	
4959	0	32846	
4960	0	32792	
4961	0	32832	
4962	0	32952	
4963	0	32800	
4964	0	32629	
4965	0	32637	
4966	0	32708	
4967	0	32588	
4968	0	32617	
4969	0	32856	
4970	0	32934	
4971	0	32932	
4972	0	32948	
4973	0	32796	
4974	0	32628	
4975	0	32616	
4976	0	32772	
4977	0	32948	
4978	0	32996	
4979	0	33060	
4980	0	32816	
4981	0	32792	
4982	0	32688	
4983	0	32670	
4984	0	32804	
4985	0	32785	
4986	0	32504	
4987	0	32744	
4988	0	32620	
4989	0	32676	
4990	0	32700	
4991	0	32584	
4992	0	32836	
4993	0	32949	
4994	0	32957	
4995	0	32748	
4996	0	32880	
4997	0	32964	
4998	0	32892	
4999	0	32760	
5000	0	32636	
5001	0	32808	
5002	0	32837	
5003	0	32712	
5004	0	32692	
5005	0	32724	
5006	0	32852	
5007	0	33060	
5008	0	33120	
5009	0	32712	
5010	0	32732	
5011	0	32732	
5012	0	32716	
5013	0	32472	
5014	0	32456	
5015	0	32620	
5016	0	32660	
5017	0	32536	
5018	0	32688	
5019	0	32862	
5020	0	32893	
5021	0	33036	
5022	0	33056	
5023	0	32868	
5024	0	32768	
5025	0	32744	
5026	0	32740	
5027	0	32676	
5028	0	32700	
5029	0	32760	
5030	0	32860	
5031	0	32828	
5032	0	33004	
5033	0	33044	
5034	0	33152	
5035	0	33121	
5036	0	32816	
5037	0	32631	
5038	0	32636	
5039	0	32576	
5040	0	32566	
5041	0	32694	
5042	0	32792	
5043	0	32884	
5044	0	32876	
5045	0	32813	
5046	0	32736	
5047	0	32592	
5048	0	32609	
5049	0	32772	
5050	0	32860	
5051	0	32818	
5052	0	32864	
5053	0	32972	
5054	0	32908	
5055	0	33108	
5056	0	33204	
5057	0	33184	
5058	0	33055	
5059	0	32746	
5060	0	32474	
5061	0	32612	
5062	0	32772	
5063	0	32536	
5064	0	32032	
5065	0	31852	
5066	0	31732	
5067	0	31980	
5068	0	32337	
5069	0	32662	
5070	0	32888	
5071	0	32897	
5072	0	33132	
5073	0	33230	
5074	0	33164	
5075	0	33040	
5076	0	32940	
5077	0	32960	
5078	0	33020	
5079	0	33032	
5080	0	33192	
5081	0	33760	
5082	0	33686	
5083	0	33252	
5084	0	32340	
5085	0	30788	
5086	0	30368	
5087	0	30628	
5088	0	31380	
5089	0	31624	
5090	0	30632	
5091	0	30260	
5092	0	31213	
5093	0	32396	
5094	0	33548	
5095	0	34516	
5096	0	35164	
5097	0	35480	
5098	0	35693	
5099	0	35572	
5100	0	35317	
5101	0	35660	
5102	0	35848	
5103	0	34788	
5104	0	34004	
5105	0	33736	
5106	0	33417	
5107	0	32868	
5108	0	33148	
5109	0	33116	
5110	0	32864	
5111	0	31968	
5112	0	31637	
5113	0	31076	
5114	0	30460	
5115	0	30396	
5116	0	30404	
5117	0	30692	
5118	0	30796	
5119	0	29916	
5120	0	29504	
5121	0	30129	
5122	0	30284	
5123	0	30776	
5124	0	32126	
5125	0	33164	
5126	0	34036	
5127	0	34724	
5128	0	35368	
5129	0	35836	
5130	0	36516	
5131	0	36384	
5132	0	35804	
5133	0	35236	
5134	0	34752	
5135	0	34016	
5136	0	33564	
5137	0	32608	
5138	0	32224	
5139	0	31096	
5140	0	30754	
5141	0	30864	
5142	0	30844	
5143	0	30848	
5144	0	30841	
5145	0	30936	
5146	0	31293	
5147	0	31822	
5148	0	32016	
5149	0	32519	
5150	0	33436	
5151	0	34112	
5152	0	34616	
5153	0	34524	
5154	0	34240	
5155	0	34060	
5156	0	32216	
5157	0	28224	
5158	0	28076	
5159	0	29624	
5160	0	31273	
5161	0	32232	
5162	0	32692	
5163	0	33541	
5164	0	31870	
5165	0	31328	
5166	0	32989	
5167	0	34172	
5168	0	34876	
5169	0	35160	
5170	0	35648	
5171	0	36148	
5172	0	36352	
5173	0	37024	
5174	0	37877	
5175	0	37092	
5176	0	36000	
5177	0	35053	
5178	0	34708	
5179	0	34090	
5180	0	33772	
5181	0	33700	
5182	0	32812	
5183	0	29988	
5184	0	26749	
5185	0	26432	
5186	0	27444	
5187	0	27864	
5188	0	28864	
5189	0	30136	
5190	0	31144	
5191	0	31920	
5192	0	31236	
5193	0	31568	
5194	0	32580	
5195	0	34344	
5196	0	34944	
5197	0	34544	
5198	0	34528	
5199	0	35560	
5200	0	36300	
5201	0	36800	
5202	0	36824	
5203	0	35048	
5204	0	33624	
5205	0	32692	
5206	0	31504	
5207	0	30328	
5208	0	31504	
5209	0	32135	
5210	0	30856	
5211	0	29312	
5212	0	27412	
5213	0	25960	
5214	0	27668	
5215	0	30617	
5216	0	32540	
5217	0	34305	
5218	0	35236	
5219	0	36552	
5220	0	37760	
5221	0	37812	
5222	0	37068	
5223	0	36852	
5224	0	36232	
5225	0	36112	
5226	0	35392	
5227	0	34560	
5228	0	33964	
5229	0	32184	
5230	0	31357	
5231	0	31424	
5232	0	31348	
5233	0	30152	
5234	0	29208	
5235	0	29228	
5236	0	29960	
5237	0	30748	
5238	0	31144	
5239	0	31400	
5240	0	31556	
5241	0	31388	
5242	0	31132	
5243	0	31054	
5244	0	31132	
5245	0	31744	
5246	0	33392	
5247	0	34284	
5248	0	32912	
5249	0	30256	
5250	0	30824	
5251	0	32224	
5252	0	34584	
5253	0	36136	
5254	0	36480	
5255	0	35872	
5256	0	34778	
5257	0	34508	
5258	0	33748	
5259	0	32964	
5260	0	31832	
5261	0	31400	
5262	0	30200	
5263	0	29676	
5264	0	30116	
5265	0	30928	
5266	0	32372	
5267	0	33672	
5268	0	35308	
5269	0	36124	
5270	0	35988	
5271	0	37104	
5272	0	37764	
5273	0	36812	
5274	0	35942	
5275	0	35012	
5276	0	34708	
5277	0	33984	
5278	0	31040	
5279	0	27400	
5280	0	25118	
5281	0	24609	
5282	0	24814	
5283	0	25032	
5284	0	26932	
5285	0	30168	
5286	0	33176	
5287	0	35300	
5288	0	35208	
5289	0	34788	
5290	0	34584	
5291	0	35256	
5292	0	33780	
5293	0	32832	
5294	0	33472	
5295	0	34352	
5296	0	35660	
5297	0	36212	
5298	0	34164	
5299	0	33336	
5300	0	35560	
5301	0	38056	
5302	0	38052	
5303	0	35656	
5304	0	34480	
5305	0	33020	
5306	0	33236	
5307	0	32736	
5308	0	31396	
5309	0	29076	
5310	0	27236	
5311	0	29876	
5312	0	31960	
5313	0	30892	
5314	0	29440	
5315	0	31376	
5316	0	33088	
5317	0	34596	
5318	0	35504	
5319	0	36860	
5320	0	36732	
5321	0	35873	
5322	0	36456	
5323	0	37292	
5324	0	37488	
5325	0	34256	
5326	0	30193	
5327	0	27964	
5328	0	28652	
5329	0	30913	
5330	0	32104	
5331	0	33284	
5332	0	33464	
5333	0	32784	
5334	0	32196	
5335	0	30780	
5336	0	28113	
5337	0	27010	
5338	0	27212	
5339	0	28784	
5340	0	31328	
5341	0	32656	
5342	0	30540	
5343	0	30816	
5344	0	32108	
5345	0	33676	
5346	0	34645	
5347	0	35820	
5348	0	36348	
5349	0	35244	
5350	0	32846	
5351	0	31936	
5352	0	31148	
5353	0	29728	
5354	0	28300	
5355	0	28308	
5356	0	29356	
5357	0	30729	
5358	0	30476	
5359	0	30956	
5360	0	32445	
5361	0	34884	
5362	0	37640	
5363	0	39152	
5364	0	37792	
5365	0	38776	
5366	0	39192	
5367	0	37684	
5368	0	35822	
5369	0	34133	
5370	0	34384	
5371	0	35432	
5372	0	35304	
5373	0	34188	
5374	0	34820	
5375	0	33644	
5376	0	33136	
5377	0	31392	
5378	0	30428	
5379	0	30844	
5380	0	32653	
5381	0	34460	
5382	0	34332	
5383	0	33141	
5384	0	31748	
5385	0	31452	
5386	0	31540	
5387	0	30804	
5388	0	30177	
5389	0	30065	
5390	0	29416	
5391	0	29604	
5392	0	30064	
5393	0	30768	
5394	0	31276	
5395	0	31888	
5396	0	32180	
5397	0	32508	
5398	0	32824	
5399	0	32224	
5400	0	32117	
5401	0	32056	
5402	0	31996	
5403	0	32352	
5404	0	32945	
5405	0	33420	
5406	0	33828	
5407	0	34300	
5408	0	33508	
5409	0	33508	
5410	0	32432	
5411	0	32168	
5412	0	32436	
5413	0	31040	
5414	0	30328	
5415	0	30128	
5416	0	31121	
5417	0	32108	
5418	0	34024	
5419	0	34852	
5420	0	34888	
5421	0	34916	
5422	0	34296	
5423	0	32616	
5424	0	33744	
5425	0	34636	
5426	0	33917	
5427	0	31260	
5428	0	30120	
5429	0	31080	
5430	0	31056	
5431	0	32100	
5432	0	32812	
5433	0	33228	
5434	0	33212	
5435	0	33044	
5436	0	34701	
5437	0	35516	
5438	0	35984	
5439	0	36588	
5440	0	35036	
5441	0	34136	
5442	0	33292	
5443	0	32345	
5444	0	31768	
5445	0	32764	
5446	0	33580	
5447	0	33860	
5448	0	34648	
5449	0	34824	
5450	0	34213	
5451	0	33456	
5452	0	31808	
5453	0	30824	
5454	0	30460	
5455	0	30864	
5456	0	31136	
5457	0	31332	
5458	0	31576	
5459	0	31320	
5460	0	31584	
5461	0	32088	
5462	0	32784	
5463	0	33208	
5464	0	33031	
5465	0	32900	
5466	0	32524	
5467	0	33024	
5468	0	33108	
5469	0	32556	
5470	0	32524	
5471	0	33808	
5472	0	33968	
5473	0	33808	
5474	0	34144	
5475	0	33649	
5476	0	32684	
5477	0	32089	
5478	0	32648	
5479	0	32500	
5480	0	32444	
5481	0	32284	
5482	0	30800	
5483	0	29988	
5484	0	30200	
5485	0	31260	
5486	0	31849	
5487	0	32772	
5488	0	33048	
5489	0	32220	
5490	0	31852	
5491	0	30960	
5492	0	30798	
5493	0	31796	
5494	0	32760	
5495	0	33384	
5496	0	33736	
5497	0	34528	
5498	0	34748	
5499	0	33968	
5500	0	33804	
5501	0	33424	
5502	0	33672	
5503	0	34052	
5504	0	34249	
5505	0	34468	
5506	0	33156	
5507	0	33128	
5508	0	33605	
5509	0	33053	
5510	0	32176	
5511	0	31526	
5512	0	31664	
5513	0	30864	
5514	0	30244	
5515	0	31296	
5516	0	32496	
5517	0	32992	
5518	0	32496	
5519	0	33616	
5520	0	35824	
5521	0	36128	
5522	0	34969	
5523	0	33300	
5524	0	33548	
5525	0	33312	
5526	0	33508	
5527	0	33116	
5528	0	32924	
5529	0	33572	
5530	0	33356	
5531	0	33516	
5532	0	33672	
5533	0	33932	
5534	0	33596	
5535	0	33278	
5536	0	32984	
5537	0	32236	
5538	0	31684	
5539	0	31832	
5540	0	31720	
5541	0	31044	
5542	0	30556	
5543	0	30688	
5544	0	31200	
5545	0	31372	
5546	0	31664	
5547	0	31936	
5548	0	32196	
5549	0	32828	
5550	0	32644	
5551	0	32358	
5552	0	32216	
5553	0	31860	
5554	0	32208	
5555	0	32800	
5556	0	32780	
5557	0	32837	
5558	0	32824	
5559	0	33069	
5560	0	33712	
5561	0	33852	
5562	0	34172	
5563	0	34029	
5564	0	33440	
5565	0	32800	
5566	0	33032	
5567	0	32544	
5568	0	31828	
5569	0	31704	
5570	0	31413	
5571	0	31464	
5572	0	32022	
5573	0	32696	
5574	0	33032	
5575	0	33228	
5576	0	33481	
5577	0	33544	
5578	0	33112	
5579	0	32744	
5580	0	32704	
5581	0	33088	
5582	0	33316	
5583	0	33544	
5584	0	33764	
5585	0	34332	
5586	0	35008	
5587	0	34644	
5588	0	33692	
5589	0	33213	
5590	0	33085	
5591	0	33248	
5592	0	32780	
5593	0	32460	
5594	0	32448	
5595	0	32078	
5596	0	31854	
5597	0	31564	
5598	0	31036	
5599	0	30028	
5600	0	30108	
5601	0	30600	
5602	0	30916	
5603	0	31624	
5604	0	32192	
5605	0	33012	
5606	0	33552	
5607	0	34240	
5608	0	34880	
5609	0	34960	
5610	0	34752	
5611	0	34612	
5612	0	34408	
5613	0	34278	
5614	0	34096	
5615	0	33364	
5616	0	32992	
5617	0	32966	
5618	0	32840	
5619	0	32336	
5620	0	32316	
5621	0	32316	
5622	0	32192	
5623	0	32090	
5624	0	31892	
5625	0	31868	
5626	0	31380	
5627	0	31392	
5628	0	31740	
5629	0	32032	
5630	0	32053	
5631	0	32516	
5632	0	32504	
5633	0	32728	
5634	0	32976	
5635	0	33048	
5636	0	33108	
5637	0	32292	
5638	0	32500	
5639	0	33008	
5640	0	33428	
5641	0	33644	
5642	0	33452	
5643	0	33903	
5644	0	33984	
5645	0	33617	
5646	0	33132	
5647	0	32992	
5648	0	32880	
5649	0	33054	
5650	0	33164	
5651	0	33228	
5652	0	33060	
5653	0	32108	
5654	0	31452	
5655	0	31476	
5656	0	31796	
5657	0	32084	
5658	0	32096	
5659	0	32452	
5660	0	32798	
5661	0	33177	
5662	0	33108	
5663	0	32656	
5664	0	32472	
5665	0	32684	
5666	0	32720	
5667	0	32886	
5668	0	32776	
5669	0	32864	
5670	0	32912	
5671	0	33165	
5672	0	32924	
5673	0	32746	
5674	0	32928	
5675	0	32960	
5676	0	33080	
5677	0	33144	
5678	0	33204	
5679	0	32932	
5680	0	33020	
5681	0	33184	
5682	0	33268	
5683	0	33448	
5684	0	32492	
5685	0	32160	
5686	0	32332	
5687	0	32296	
5688	0	32340	
5689	0	32228	
5690	0	32188	
5691	0	32536	
5692	0	32992	
5693	0	33100	
5694	0	33192	
5695	0	33412	
5696	0	33352	
5697	0	32860	
5698	0	32560	
5699	0	32612	
5700	0	32740	
5701	0	32669	
5702	0	32512	
5703	0	32600	
5704	0	32516	
5705	0	32596	
5706	0	32648	
5707	0	32696	
5708	0	32932	
5709	0	32808	
5710	0	32596	
5711	0	32628	
5712	0	32793	
5713	0	33060	
5714	0	32888	
5715	0	32808	
5716	0	32702	
5717	0	32696	
5718	0	32948	
5719	0	33005	
5720	0	33112	
5721	0	33164	
5722	0	33124	
5723	0	32916	
5724	0	32678	
5725	0	32636	
5726	0	32577	
5727	0	32492	
5728	0	32508	
5729	0	32512	
5730	0	32740	
5731	0	32780	
5732	0	32685	
5733	0	32652	
5734	0	32724	
5735	0	32384	
5736	0	32236	
5737	0	32180	
5738	0	32612	
5739	0	32984	
5740	0	33268	
5741	0	33392	
5742	0	33340	
5743	0	33280	
5744	0	33097	
5745	0	33092	
5746	0	32912	
5747	0	32973	
5748	0	32948	
5749	0	32900	
5750	0	33144	
5751	0	33262	
5752	0	33120	
5753	0	32840	
5754	0	32541	
5755	0	32392	
5756	0	32380	
5757	0	32324	
5758	0	32572	
5759	0	32944	
5760	0	33168	
5761	0	33169	
5762	0	32808	
5763	0	32336	
5764	0	32245	
5765	0	32080	
5766	0	32000	
5767	0	32252	
5768	0	32576	
5769	0	32612	
5770	0	32548	
5771	0	32512	
5772	0	32968	
5773	0	33080	
5774	0	33120	
5775	0	33125	
5776	0	32684	
5777	0	32536	
5778	0	32694	
5779	0	32886	
5780	0	33204	
5781	0	33088	
5782	0	33048	
5783	0	33140	
5784	0	33342	
5785	0	33253	
5786	0	33024	
5787	0	32996	
5788	0	32964	
5789	0	32581	
5790	0	32580	
5791	0	32558	
5792	0	32541	
5793	0	32841	
5794	0	32696	
5795	0	32588	
5796	0	32484	
5797	0	32444	
5798	0	32824	
5799	0	32944	
5800	0	32721	
5801	0	32584	
5802	0	32584	
5803	0	32612	
5804	0	32693	
5805	0	32700	
5806	0	32564	
5807	0	32790	
5808	0	32832	
5809	0	32744	
5810	0	32704	
5811	0	32832	
5812	0	32772	
5813	0	32732	
5814	0	32668	
5815	0	32704	
5816	0	32901	
5817	0	32974	
5818	0	33108	
5819	0	33064	
5820	0	33072	
5821	0	32932	
5822	0	32976	
5823	0	33052	
5824	0	33004	
5825	0	32800	
5826	0	32496	
5827	0	32556	
5828	0	32788	
5829	0	32860	
5830	0	32716	
5831	0	32764	
5832	0	32832	
5833	0	32704	
5834	0	32568	
5835	0	32600	
5836	0	32664	
5837	0	32728	
5838	0	32788	
5839	0	32848	
5840	0	32848	
5841	0	32548	
5842	0	32636	
5843	0	32645	
5844	0	32604	
5845	0	32568	
5846	0	32568	
5847	0	32696	
5848	0	33008	
5849	0	33385	
5850	0	33004	
5851	0	32788	
5852	0	32740	
5853	0	32688	
5854	0	32913	
5855	0	32864	
5856	0	32904	
5857	0	32720	
5858	0	32500	
5859	0	32517	
5860	0	32656	
5861	0	32712	
5862	0	32936	
5863	0	32812	
5864	0	32960	
5865	0	33033	
5866	0	32888	
5867	0	32884	
5868	0	32644	
5869	0	32504	
5870	0	32540	
5871	0	32836	
5872	0	32788	
5873	0	32792	
5874	0	32752	
5875	0	32736	
5876	0	32768	
5877	0	32836	
5878	0	32888	
5879	0	33076	
5880	0	33024	
5881	0	32852	
5882	0	32844	
5883	0	32596	
5884	0	32608	
5885	0	32532	
5886	0	32486	
5887	0	32672	
5888	0	32673	
5889	0	32792	
5890	0	32908	
5891	0	32952	
5892	0	32856	
5893	0	32904	
5894	0	32884	
5895	0	32877	
5896	0	32900	
5897	0	32776	
5898	0	32724	
5899	0	32760	
5900	0	32869	
5901	0	32832	
5902	0	32592	
5903	0	32369	
5904	0	32188	
5905	0	32252	
5906	0	32468	
5907	0	32881	
5908	0	33044	
5909	0	32892	
5910	0	33000	
5911	0	33024	
5912	0	32928	
5913	0	33028	
5914	0	33056	
5915	0	33092	
5916	0	33160	
5917	0	33092	
5918	0	32852	
5919	0	32860	
5920	0	32740	
5921	0	32588	
5922	0	32840	
5923	0	32698	
5924	0	32408	
5925	0	32612	
5926	0	32680	
5927	0	32664	
5928	0	32724	
5929	0	32740	
5930	0	32928	
5931	0	32884	
5932	0	32808	
5933	0	32736	
5934	0	32716	
5935	0	32556	
5936	0	32604	
5937	0	32696	
5938	0	32792	
5939	0	32832	
5940	0	32936	
5941	0	32960	
5942	0	32804	
5943	0	32760	
5944	0	32720	
5945	0	32900	
5946	0	32824	
5947	0	32832	
5948	0	32608	
5949	0	32652	
5950	0	32928	
5951	0	32813	
5952	0	32584	
5953	0	32460	
5954	0	32624	
5955	0	32628	
5956	0	32736	
5957	0	33032	
5958	0	32964	
5959	0	32792	
5960	0	32816	
5961	0	32660	
5962	0	32564	
5963	0	32508	
5964	0	32636	
5965	0	32756	
5966	0	32660	
5967	0	32996	
5968	0	33152	
5969	0	33204	
5970	0	33208	
5971	0	32960	
5972	0	32924	
5973	0	32774	
5974	0	32672	
5975	0	32712	
5976	0	32837	
5977	0	32832	
5978	0	32812	
5979	0	32736	
5980	0	32908	
5981	0	32752	
5982	0	32680	
5983	0	32620	
5984	0	32662	
5985	0	32612	
5986	0	32445	
5987	0	32712	
5988	0	32693	
5989	0	32636	
5990	0	32776	
5991	0	32694	
5992	0	32768	
5993	0	32808	
5994	0	32852	
5995	0	32872	
5996	0	33036	
5997	0	32964	
5998	0	32892	
5999	0	32944	
6000	0	32945	
6001	0	32832	
6002	0	32790	
6003	0	32724	
6004	0	32836	
6005	0	32852	
6006	0	32580	
6007	0	32564	
6008	0	32660	
6009	0	32620	
6010	0	32832	
6011	0	32872	
6012	0	32816	
6013	0	32744	
6014	0	32796	
6015	0	32796	
6016	0	32768	
6017	0	32812	
6018	0	32702	
6019	0	32688	
6020	0	32916	
6021	0	32832	
6022	0	32780	
6023	0	32380	
6024	0	32456	
6025	0	32800	
6026	0	32624	
6027	0	32516	
6028	0	32820	
6029	0	33197	
6030	0	33037	
6031	0	32773	
6032	0	32628	
6033	0	32605	
6034	0	32684	
6035	0	32932	
6036	0	32896	
6037	0	32696	
6038	0	32676	
6039	0	32824	
6040	0	32813	
6041	0	32720	
6042	0	32880	
6043	0	32960	
6044	0	33116	
6045	0	33020	
6046	0	32860	
6047	0	32776	
6048	0	32688	
6049	0	32572	
6050	0	32480	
6051	0	32420	
6052	0	32500	
6053	0	33136	
6054	0	33032	
6055	0	32868	
6056	0	32797	
6057	0	32836	
6058	0	32774	
6059	0	32724	
6060	0	32700	
6061	0	32740	
6062	0	32736	
6063	0	32972	
6064	0	32856	
6065	0	32792	
6066	0	32400	
6067	0	32532	
6068	0	32688	
6069	0	32676	
6070	0	32896	
6071	0	32968	
6072	0	32916	
6073	0	32800	
6074	0	32774	
6075	0	32712	
6076	0	32809	
6077	0	32952	
6078	0	32792	
6079	0	32912	
6080	0	33024	
6081	0	32829	
6082	0	32764	
6083	0	32590	
6084	0	32548	
6085	0	32672	
6086	0	32448	
6087	0	32796	
6088	0	32792	
6089	0	32744	
6090	0	32916	
6091	0	32905	
6092	0	32840	
6093	0	32924	
6094	0	32768	
6095	0	32664	
6096	0	32696	
6097	0	32772	
6098	0	32564	
6099	0	32620	
6100	0	32644	
6101	0	32622	
6102	0	32736	
6103	0	32776	
6104	0	32775	
6105	0	32740	
6106	0	32676	
6107	0	32884	
6108	0	32988	
6109	0	32964	
6110	0	33200	
6111	0	33236	
6112	0	33094	
6113	0	32932	
6114	0	32852	
6115	0	32948	
6116	0	33161	
6117	0	32840	
6118	0	32612	
6119	0	32568	
6120	0	32524	
6121	0	32380	
6122	0	32448	
6123	0	32476	
6124	0	32544	
6125	0	32612	
6126	0	32528	
6127	0	32637	
6128	0	32700	
6129	0	32748	
6130	0	32880	
6131	0	32868	
6132	0	32696	
6133	0	32912	
6134	0	32968	
6135	0	32748	
6136	0	32740	
6137	0	33028	
6138	0	32996	
6139	0	32868	
6140	0	33136	
6141	0	32870	
6142	0	32508	
6143	0	32452	
6144	0	32388	
6145	0	32528	
6146	0	32649	
6147	0	32896	
6148	0	33236	
6149	0	33196	
6150	0	32969	
6151	0	32760	
6152	0	32828	
6153	0	33030	
6154	0	32900	
6155	0	32692	
6156	0	32652	
6157	0	32772	
6158	0	33124	
6159	0	32924	
6160	0	32628	
6161	0	32500	
6162	0	32404	
6163	0	32452	
6164	0	32644	
6165	0	32744	
6166	0	32732	
6167	0	32884	
6168	0	32988	
6169	0	32684	
6170	0	32800	
6171	0	32844	
6172	0	32804	
6173	0	32768	
6174	0	32696	
6175	0	32712	
6176	0	32792	
6177	0	32796	
6178	0	32808	
6179	0	32959	
6180	0	32868	
6181	0	32732	
6182	0	32775	
6183	0	32692	
6184	0	32751	
6185	0	32708	
6186	0	32704	
6187	0	32696	
6188	0	32757	
6189	0	32784	
6190	0	32896	
6191	0	32760	
6192	0	32708	
6193	0	32868	
6194	0	32820	
6195	0	32848	
6196	0	32800	
6197	0	32808	
6198	0	32752	
6199	0	32840	
6200	0	32812	
6201	0	32900	
6202	0	32908	
6203	0	33060	
6204	0	32968	
6205	0	32581	
6206	0	32472	
6207	0	32700	
6208	0	32688	
6209	0	32632	
6210	0	32808	
6211	0	32912	
6212	0	32824	
6213	0	32956	
6214	0	32816	
6215	0	32774	
6216	0	32766	
6217	0	32648	
6218	0	32772	
6219	0	32805	
6220	0	32840	
6221	0	32920	
6222	0	32944	
6223	0	32740	
6224	0	32612	
6225	0	32484	
6226	0	32376	
6227	0	32649	
6228	0	32924	
6229	0	32820	
6230	0	32960	
6231	0	33008	
6232	0	32724	
6233	0	32596	
6234	0	32668	
6235	0	32670	
6236	0	32852	
6237	0	33064	
6238	0	32980	
6239	0	33052	
6240	0	33029	
6241	0	32945	
6242	0	32732	
6243	0	32576	
6244	0	32512	
6245	0	32512	
6246	0	32584	
6247	0	32732	
6248	0	32724	
6249	0	32628	
6250	0	32910	
6251	0	32908	
6252	0	33024	
6253	0	33084	
6254	0	32956	
6255	0	32816	
6256	0	32606	
6257	0	32785	
6258	0	32872	
6259	0	32788	
6260	0	32564	
6261	0	32544	
6262	0	32648	
6263	0	32656	
6264	0	32628	
6265	0	32652	
6266	0	32640	
6267	0	32828	
6268	0	32876	
6269	0	32737	
6270	0	32892	
6271	0	32884	
6272	0	32936	
6273	0	32856	
6274	0	32929	
6275	0	32936	
6276	0	32868	
6277	0	32764	
6278	0	32800	
6279	0	32876	
6280	0	32756	
6281	0	32774	
6282	0	32877	
6283	0	32684	
6284	0	32696	
6285	0	32572	
6286	0	32780	
6287	0	32820	
6288	0	32616	
6289	0	32481	
6290	0	32662	
6291	0	32644	
6292	0	32736	
6293	0	32834	
6294	0	33064	
6295	0	33112	
6296	0	33000	
6297	0	32812	
6298	0	32714	
6299	0	32721	
6300	0	32672	
6301	0	32708	
6302	0	32708	
6303	0	32765	
6304	0	33064	
6305	0	32964	
6306	0	32624	
6307	0	32494	
6308	0	32621	
6309	0	32661	
6310	0	32820	
6311	0	32900	
6312	0	32864	
6313	0	32924	
6314	0	32820	
6315	0	32716	
6316	0	32804	
6317	0	32796	
6318	0	32804	
6319	0	32804	
6320	0	32900	
6321	0	32860	
6322	0	32676	
6323	0	32644	
6324	0	32676	
6325	0	32704	
6326	0	32594	
6327	0	32676	
6328	0	32632	
6329	0	32613	
6330	0	32868	
6331	0	33088	
6332	0	33206	
6333	0	33004	
6334	0	32912	
6335	0	33036	
6336	0	32768	
6337	0	32598	
6338	0	32692	
6339	0	32844	
6340	0	32708	
6341	0	32580	
6342	0	32552	
6343	0	32648	
6344	0	32948	
6345	0	33060	
6346	0	32962	
6347	0	32588	
6348	0	32716	
6349	0	32680	
6350	0	32668	
6351	0	32632	
6352	0	32752	
6353	0	32728	
6354	0	32828	
6355	0	32900	
6356	0	32832	
6357	0	32808	
6358	0	32796	
6359	0	32949	
6360	0	32984	
6361	0	33045	
6362	0	32848	
6363	0	32736	
6364	0	32692	
6365	0	32700	
6366	0	32730	
6367	0	32804	
6368	0	32712	
6369	0	32636	
6370	0	32822	
6371	0	32646	
6372	0	32684	
6373	0	32732	
6374	0	32740	
6375	0	32708	
6376	0	32836	
6377	0	32868	
6378	0	32976	
6379	0	32988	
6380	0	32988	
6381	0	32869	
6382	0	32784	
6383	0	32824	
6384	0	32780	
6385	0	32513	
6386	0	32612	
6387	0	32688	
6388	0	32697	
6389	0	32916	
6390	0	32904	
6391	0	32796	
6392	0	32656	
6393	0	32620	
6394	0	32724	
6395	0	32760	
6396	0	32905	
6397	0	32824	
6398	0	32644	
6399	0	32744	
6400	0	32764	
6401	0	32872	
6402	0	32832	
6403	0	32652	
6404	0	32784	
6405	0	32712	
6406	0	32900	
6407	0	33060	
6408	0	32908	
6409	0	32888	
6410	0	32844	
6411	0	32756	
6412	0	32761	
6413	0	32684	
6414	0	32816	
6415	0	32748	
6416	0	32676	
6417	0	32672	
6418	0	32708	
6419	0	32824	
6420	0	32812	
6421	0	32800	
6422	0	32724	
6423	0	32612	
6424	0	32698	
6425	0	32636	
6426	0	32705	
6427	0	32844	
6428	0	32800	
6429	0	32669	
6430	0	32736	
6431	0	32960	
6432	0	33044	
6433	0	33156	
6434	0	33243	
6435	0	32812	
6436	0	32654	
6437	0	32672	
6438	0	32730	
6439	0	32796	
6440	0	32832	
6441	0	32724	
6442	0	32625	
6443	0	32704	
6444	0	32608	
6445	0	32676	
6446	0	32712	
6447	0	32804	
6448	0	32752	
6449	0	32676	
6450	0	32756	
6451	0	32924	
6452	0	32924	
6453	0	32800	
6454	0	32776	
6455	0	32772	
6456	0	32972	
6457	0	32848	
6458	0	32948	
6459	0	32978	
6460	0	32788	
6461	0	32588	
6462	0	32573	
6463	0	32628	
6464	0	32684	
6465	0	32480	
6466	0	32536	
6467	0	32832	
6468	0	32900	
6469	0	32936	
6470	0	32932	
6471	0	32888	
6472	0	32880	
6473	0	32980	
6474	0	32748	
6475	0	32585	
6476	0	32633	
6477	0	32644	
6478	0	32744	
6479	0	32964	
6480	0	32932	
6481	0	33020	
6482	0	32990	
6483	0	32780	
6484	0	32788	
6485	0	32480	
6486	0	32484	
6487	0	32640	
6488	0	32738	
6489	0	32697	
6490	0	32744	
6491	0	32868	
6492	0	32880	
6493	0	32968	
6494	0	32800	
6495	0	32740	
6496	0	32912	
6497	0	33092	
6498	0	33082	
6499	0	32976	
6500	0	32628	
6501	0	32548	
6502	0	32500	
6503	0	32632	
6504	0	32668	
6505	0	32472	
6506	0	32744	
6507	0	32822	
6508	0	32590	
6509	0	32780	
6510	0	32964	
6511	0	32908	
6512	0	32862	
6513	0	32764	
6514	0	32868	
6515	0	32932	
6516	0	32864	
6517	0	32672	
6518	0	32638	
6519	0	32868	
6520	0	32986	
6521	0	33012	
6522	0	32932	
6523	0	32776	
6524	0	32668	
6525	0	32352	
6526	0	32448	
6527	0	32724	
6528	0	32932	
6529	0	32932	
6530	0	33088	
6531	0	33065	
6532	0	32948	
6533	0	32800	
6534	0	32831	
6535	0	32652	
6536	0	32660	
6537	0	32624	
6538	0	32736	
6539	0	32720	
6540	0	32564	
6541	0	32748	
6542	0	32780	
6543	0	32608	
6544	0	32540	
6545	0	32468	
6546	0	32716	
6547	0	32821	
6548	0	33116	
6549	0	33157	
6550	0	32968	
6551	0	32916	
6552	0	32860	
6553	0	32816	
6554	0	33004	
6555	0	32854	
6556	0	32804	
6557	0	32777	
6558	0	32690	
6559	0	32736	
6560	0	32752	
6561	0	32757	
6562	0	32672	
6563	0	32652	
6564	0	32736	
6565	0	32556	
6566	0	32696	
6567	0	32798	
6568	0	32804	
6569	0	32812	
6570	0	32764	
6571	0	32820	
6572	0	32788	
6573	0	32808	
6574	0	32860	
6575	0	32824	
6576	0	32928	
6577	0	33044	
6578	0	32844	
6579	0	33004	
6580	0	32812	
6581	0	32704	
6582	0	32644	
6583	0	32584	
6584	0	32612	
6585	0	32528	
6586	0	32572	
6587	0	32709	
6588	0	32728	
6589	0	32804	
6590	0	32860	
6591	0	32900	
6592	0	32980	
6593	0	32868	
6594	0	32864	
6595	0	32888	
6596	0	32724	
6597	0	32708	
6598	0	32676	
6599	0	32936	
6600	0	32837	
6601	0	32784	
6602	0	32624	
6603	0	32656	
6604	0	32728	
6605	0	32732	
6606	0	32780	
6607	0	32845	
6608	0	32768	
6609	0	32992	
6610	0	33032	
6611	0	32862	
6612	0	32896	
6613	0	32840	
6614	0	32760	
6615	0	32820	
6616	0	32620	
6617	0	32628	
6618	0	32664	
6619	0	32928	
6620	0	32576	
6621	0	32316	
6622	0	32660	
6623	0	32888	
6624	0	32865	
6625	0	32516	
6626	0	32616	
6627	0	32756	
6628	0	32885	
6629	0	32896	
6630	0	32796	
6631	0	32776	
6632	0	32880	
6633	0	32832	
6634	0	32816	
6635	0	32720	
6636	0	32876	
6637	0	33056	
6638	0	32956	
6639	0	32720	
6640	0	32576	
6641	0	32656	
6642	0	32672	
6643	0	32736	
6644	0	32752	
6645	0	32700	
6646	0	32852	
6647	0	32710	
6648	0	32884	
6649	0	33156	
6650	0	33044	
6651	0	32781	
6652	0	32696	
6653	0	32520	
6654	0	32629	
6655	0	32776	
6656	0	32701	
6657	0	32762	
6658	0	32900	
6659	0	32956	
6660	0	32728	
6661	0	32720	
6662	0	32660	
6663	0	32612	
6664	0	32700	
6665	0	32544	
6666	0	32732	
6667	0	32728	
6668	0	32737	
6669	0	32848	
6670	0	32840	
6671	0	32909	
6672	0	32904	
6673	0	32836	
6674	0	32856	
6675	0	32820	
6676	0	32780	
6677	0	32880	
6678	0	32964	
6679	0	33089	
6680	0	32876	
6681	0	32772	
6682	0	32697	
6683	0	32758	
6684	0	32806	
6685	0	32656	
6686	0	32744	
6687	0	32780	
6688	0	32812	
6689	0	32748	
6690	0	32796	
6691	0	32805	
6692	0	32668	
6693	0	32704	
6694	0	32797	
6695	0	32744	
6696	0	32668	
6697	0	32700	
6698	0	32769	
6699	0	32924	
6700	0	32826	
6701	0	32852	
6702	0	32664	
6703	0	32896	
6704	0	32784	
6705	0	32456	
6706	0	32644	
6707	0	32894	
6708	0	32894	
6709	0	33184	
6710	0	32804	
6711	0	32620	
6712	0	32764	
6713	0	32742	
6714	0	32596	
6715	0	32676	
6716	0	32840	
6717	0	32888	
6718	0	32804	
6719	0	32860	
6720	0	32702	
6721	0	32756	
6722	0	32589	
6723	0	32660	
6724	0	32568	
6725	0	32472	
6726	0	32596	
6727	0	32824	
6728	0	33056	
6729	0	33060	
6730	0	32976	
6731	0	32940	
6732	0	32769	
6733	0	32576	
6734	0	32768	
6735	0	32756	
6736	0	32864	
6737	0	32863	
6738	0	32782	
6739	0	32844	
6740	0	32612	
6741	0	32600	
6742	0	32822	
6743	0	32812	
6744	0	32946	
6745	0	32792	
6746	0	32734	
6747	0	32788	
6748	0	32738	
6749	0	32732	
6750	0	32740	
6751	0	32792	
6752	0	32772	
6753	0	32808	
6754	0	32837	
6755	0	32996	
6756	0	32896	
6757	0	32781	
6758	0	32844	
6759	0	33006	
6760	0	32840	
6761	0	32564	
6762	0	32556	
6763	0	32617	
6764	0	32672	
6765	0	32532	
6766	0	32668	
6767	0	32716	
6768	0	32924	
6769	0	32940	
6770	0	32752	
6771	0	32820	
6772	0	32928	
6773	0	32956	
6774	0	32900	
6775	0	32852	
6776	0	32852	
6777	0	32744	
6778	0	32713	
6779	0	32792	
6780	0	32712	
6781	0	32853	
6782	0	32716	
6783	0	32676	
6784	0	32660	
6785	0	32620	
6786	0	32712	
6787	0	32640	
6788	0	32532	
6789	0	32648	
6790	0	32888	
6791	0	33012	
6792	0	32964	
6793	0	32928	
6794	0	32876	
6795	0	32889	
6796	0	32877	
6797	0	32801	
6798	0	32776	
6799	0	32844	
6800	0	32640	
6801	0	32616	
6802	0	32616	
6803	0	32616	
6804	0	32748	
6805	0	32472	
6806	0	32800	
6807	0	33076	
6808	0	32837	
6809	0	32808	
6810	0	32684	
6811	0	32604	
6812	0	32716	
6813	0	32956	
6814	0	33088	
6815	0	32904	
6816	0	32872	
6817	0	32820	
6818	0	32788	
6819	0	32870	
6820	0	32812	
6821	0	32700	
6822	0	32636	
6823	0	32600	
6824	0	32528	
6825	0	32472	
6826	0	32708	
6827	0	32741	
6828	0	32712	
6829	0	33092	
6830	0	33184	
6831	0	32996	
6832	0	33104	
6833	0	32856	
6834	0	32668	
6835	0	32743	
6836	0	32654	
6837	0	32708	
6838	0	32758	
6839	0	32820	
6840	0	32668	
6841	0	32653	
6842	0	32669	
6843	0	32701	
6844	0	32660	
6845	0	32468	
6846	0	32712	
6847	0	32845	
6848	0	32804	
6849	0	32856	
6850	0	32824	
6851	0	32852	
6852	0	32932	
6853	0	32988	
6854	0	32716	
6855	0	32808	
6856	0	32784	
6857	0	32916	
6858	0	33088	
6859	0	33056	
6860	0	32744	
6861	0	32720	
6862	0	32664	
6863	0	32680	
6864	0	32644	
6865	0	32480	
6866	0	32596	
6867	0	32772	
6868	0	32788	
6869	0	33052	
6870	0	33076	
6871	0	33020	
6872	0	32736	
6873	0	32677	
6874	0	32604	
6875	0	32614	
6876	0	32560	
6877	0	32832	
6878	0	32852	
6879	0	32816	
6880	0	32720	
6881	0	32748	
6882	0	32872	
6883	0	32865	
6884	0	32848	
6885	0	32592	
6886	0	32749	
6887	0	32772	
6888	0	32676	
6889	0	32940	
6890	0	32856	
6891	0	32736	
6892	0	32712	
6893	0	32804	
6894	0	32604	
6895	0	32688	
6896	0	32920	
6897	0	33008	
6898	0	33166	
6899	0	33036	
6900	0	32813	
6901	0	32676	
6902	0	32708	
6903	0	32829	
6904	0	32717	
6905	0	32668	
6906	0	32584	
6907	0	32436	
6908	0	32429	
6909	0	32793	
6910	0	32776	
6911	0	32892	
6912	0	32920	
6913	0	32601	
6914	0	32641	
6915	0	32852	
6916	0	32964	
6917	0	32804	
6918	0	32924	
6919	0	32876	
6920	0	32726	
6921	0	32725	
6922	0	32712	
6923	0	32589	
6924	0	32704	
6925	0	32596	
6926	0	32748	
6927	0	32752	
6928	0	32724	
6929	0	33026	
6930	0	33048	
6931	0	32928	
6932	0	32656	
6933	0	32644	
6934	0	32692	
6935	0	32820	
6936	0	32900	
6937	0	33000	
6938	0	32908	
6939	0	32948	
6940	0	32913	
6941	0	32792	
6942	0	32696	
6943	0	32660	
6944	0	32648	
6945	0	32480	
6946	0	32724	
6947	0	32780	
6948	0	32805	
6949	0	33040	
6950	0	32796	
6951	0	32748	
6952	0	32782	
6953	0	32752	
6954	0	32848	
6955	0	32920	
6956	0	32904	
6957	0	32812	
6958	0	32912	
6959	0	32860	
6960	0	32678	
6961	0	32668	
6962	0	32612	
6963	0	32684	
6964	0	32644	
6965	0	32612	
6966	0	32748	
6967	0	32832	
6968	0	32980	
6969	0	32984	
6970	0	32684	
6971	0	32684	
6972	0	32824	
6973	0	32766	
6974	0	32864	
6975	0	32912	
6976	0	32856	
6977	0	32865	
6978	0	33000	
6979	0	33044	
6980	0	32804	
6981	0	32856	
6982	0	32724	
6983	0	32604	
6984	0	32464	
6985	0	32514	
6986	0	32621	
6987	0	32596	
6988	0	32740	
6989	0	32880	
6990	0	32912	
6991	0	32890	
6992	0	32636	
6993	0	32788	
6994	0	32864	
6995	0	32928	
6996	0	32976	
6997	0	32716	
6998	0	32764	
6999	0	32829	
7000	0	32596	
7001	0	32876	
7002	0	32924	
7003	0	32992	
7004	0	32856	
7005	0	32604	
7006	0	32564	
7007	0	32668	
7008	0	32696	
7009	0	32968	
7010	0	33116	
7011	0	33008	
7012	0	32775	
7013	0	32584	
7014	0	32688	
7015	0	32676	
7016	0	32688	
7017	0	32712	
7018	0	32768	
7019	0	32804	
7020	0	32896	
7021	0	32740	
7022	0	32678	
7023	0	32638	
7024	0	32572	
7025	0	32640	
7026	0	32568	
7027	0	32820	
7028	0	32808	
7029	0	33084	
7030	0	33148	
7031	0	32884	
7032	0	32788	
7033	0	32832	
7034	0	32952	
7035	0	32836	
7036	0	32820	
7037	0	32888	
7038	0	32888	
7039	0	32780	
7040	0	32748	
7041	0	32708	
7042	0	32697	
7043	0	32684	
7044	0	32544	
7045	0	32517	
7046	0	32752	
7047	0	32924	
7048	0	32796	
7049	0	32712	
7050	0	32812	
7051	0	32844	
7052	0	32801	
7053	0	32896	
7054	0	32804	
7055	0	32796	
7056	0	32876	
7057	0	32751	
7058	0	32928	
7059	0	32844	
7060	0	32856	
7061	0	32725	
7062	0	32722	
7063	0	32901	
7064	0	32656	
7065	0	32462	
7066	0	32528	
7067	0	32564	
7068	0	32688	
7069	0	32876	
7070	0	32950	
7071	0	32836	
7072	0	32949	
7073	0	32916	
7074	0	32884	
7075	0	33089	
7076	0	32952	
7077	0	32748	
7078	0	32820	
7079	0	32732	
7080	0	32744	
7081	0	32624	
7082	0	32704	
7083	0	32909	
7084	0	32900	
7085	0	32720	
7086	0	32620	
7087	0	32760	
7088	0	32716	
7089	0	32692	
7090	0	32776	
7091	0	32776	
7092	0	32820	
7093	0	32804	
7094	0	32788	
7095	0	32910	
7096	0	33053	
7097	0	32868	
7098	0	32860	
7099	0	32748	
7100	0	32828	
7101	0	33016	
7102	0	32916	
7103	0	32832	
7104	0	32620	
7105	0	32640	
7106	0	32832	
7107	0	32693	
7108	0	32549	
7109	0	32885	
7110	0	32980	
7111	0	32680	
7112	0	32632	
7113	0	32676	
7114	0	32752	
7115	0	32932	
7116	0	33060	
7117	0	32820	
7118	0	32760	
7119	0	32708	
7120	0	32672	
7121	0	32684	
7122	0	32600	
7123	0	32724	
7124	0	32576	
7125	0	32548	
7126	0	32744	
7127	0	32948	
7128	0	32908	
7129	0	32932	
7130	0	32904	
7131	0	32788	
7132	0	32868	
7133	0	32808	
7134	0	32825	
7135	0	32712	
7136	0	32812	
7137	0	32736	
7138	0	32820	
7139	0	32792	
7140	0	32734	
7141	0	32948	
7142	0	32824	
7143	0	32868	
7144	0	32740	
7145	0	32612	
7146	0	32516	
7147	0	32672	
7148	0	32860	
7149	0	32901	
7150	0	32876	
7151	0	32768	
7152	0	32696	
7153	0	32684	
7154	0	32800	
7155	0	32888	
7156	0	32884	
7157	0	32888	
7158	0	32800	
7159	0	32622	
7160	0	32676	
7161	0	32660	
7162	0	32876	
7163	0	32820	
7164	0	32508	
7165	0	32705	
7166	0	32788	
7167	0	32788	
7168	0	32821	
7169	0	32892	
7170	0	32968	
7171	0	33160	
7172	0	32826	
7173	0	32764	
7174	0	32800	
7175	0	32680	
7176	0	32632	
7177	0	32718	
7178	0	32860	
7179	0	32868	
7180	0	32852	
7181	0	32728	
7182	0	32680	
7183	0	32632	
7184	0	32508	
7185	0	32676	
7186	0	32712	
7187	0	32756	
7188	0	32948	
7189	0	33056	
7190	0	32920	
7191	0	32753	
7192	0	32800	
7193	0	32748	
7194	0	32828	
7195	0	32920	
7196	0	32935	
7197	0	32636	
7198	0	32528	
7199	0	32540	
7200	0	32701	
7201	0	32702	
7202	0	32773	
7203	0	32764	
7204	0	32672	
7205	0	32749	
7206	0	32744	
7207	0	32744	
7208	0	32776	
7209	0	32980	
7210	0	32932	
7211	0	32864	
7212	0	32904	
7213	0	32880	
7214	0	32844	
7215	0	32900	
7216	0	32896	
7217	0	32920	
7218	0	32856	
7219	0	32832	
7220	0	32748	
7221	0	32680	
7222	0	32860	
7223	0	32848	
7224	0	32796	
7225	0	32756	
7226	0	32680	
7227	0	32704	
7228	0	32716	
7229	0	32788	
7230	0	32844	
7231	0	32676	
7232	0	32668	
7233	0	32788	
7234	0	32776	
7235	0	32848	
7236	0	32720	
7237	0	32700	
7238	0	32812	
7239	0	32684	
7240	0	32624	
7241	0	32694	
7242	0	33108	
7243	0	33113	
7244	0	32726	
7245	0	32676	
7246	0	32604	
7247	0	32764	
7248	0	32900	
7249	0	32829	
7250	0	32908	
7251	0	32768	
7252	0	32872	
7253	0	32816	
7254	0	32740	
7255	0	32676	
7256	0	32692	
7257	0	32688	
7258	0	32892	
7259	0	32940	
7260	0	33012	
7261	0	32713	
7262	0	32572	
7263	0	32548	
7264	0	32684	
7265	0	32885	
7266	0	32832	
7267	0	32600	
7268	0	32692	
7269	0	32832	
7270	0	32828	
7271	0	32964	
7272	0	33132	
7273	0	32848	
7274	0	32736	
7275	0	32840	
7276	0	32724	
7277	0	32678	
7278	0	32872	
7279	0	32780	
7280	0	32652	
7281	0	32640	
7282	0	32676	
7283	0	32884	
7284	0	32656	
7285	0	32648	
7286	0	32869	
7287	0	32921	
7288	0	32804	
7289	0	32820	
7290	0	32802	
7291	0	32788	
7292	0	32740	
7293	0	32744	
7294	0	32808	
7295	0	32764	
7296	0	32840	
7297	0	32708	
7298	0	32901	
7299	0	32976	
7300	0	32832	
7301	0	32570	
7302	0	32600	
7303	0	32704	
7304	0	32637	
7305	0	32704	
7306	0	32716	
7307	0	32852	
7308	0	32740	
7309	0	32832	
7310	0	32928	
7311	0	32993	
7312	0	32992	
7313	0	32868	
7314	0	32936	
7315	0	32880	
7316	0	32756	
7317	0	32700	
7318	0	32816	
7319	0	32668	
7320	0	32548	
7321	0	32600	
7322	0	32692	
7323	0	32816	
7324	0	32804	
7325	0	32676	
7326	0	32686	
7327	0	32921	
7328	0	33000	
7329	0	32862	
7330	0	32840	
7331	0	32784	
7332	0	32760	
7333	0	32796	
7334	0	32712	
7335	0	32812	
7336	0	32804	
7337	0	32712	
7338	0	32984	
7339	0	32884	
7340	0	32764	
7341	0	32920	
7342	0	32856	
7343	0	32764	
7344	0	32457	
7345	0	32412	
7346	0	32576	
7347	0	32692	
7348	0	32788	
7349	0	32944	
7350	0	33012	
7351	0	32856	
7352	0	32818	
7353	0	32888	
7354	0	32900	
7355	0	32786	
7356	0	32764	
7357	0	32772	
7358	0	32840	
7359	0	32841	
7360	0	32820	
7361	0	32916	
7362	0	32778	
7363	0	32716	
7364	0	32356	
7365	0	32442	
7366	0	32766	
7367	0	32918	
7368	0	33020	
7369	0	33025	
7370	0	33020	
7371	0	32828	
7372	0	32556	
7373	0	32560	
7374	0	32704	
7375	0	32604	
7376	0	32652	
7377	0	32604	
7378	0	32702	
7379	0	32744	
7380	0	32984	
7381	0	33113	
7382	0	32948	
7383	0	32848	
7384	0	32565	
7385	0	32608	
7386	0	32944	
7387	0	32916	
7388	0	32964	
7389	0	32805	
7390	0	32692	
7391	0	32660	
7392	0	32724	
7393	0	32710	
7394	0	32840	
7395	0	33036	
7396	0	32884	
7397	0	32808	
7398	0	32864	
7399	0	32628	
7400	0	32684	
7401	0	32612	
7402	0	32672	
7403	0	32808	
7404	0	32752	
7405	0	32788	
7406	0	32601	
7407	0	32568	
7408	0	32798	
7409	0	32896	
7410	0	32984	
7411	0	33048	
7412	0	33104	
7413	0	32920	
7414	0	32893	
7415	0	32740	
7416	0	32776	
7417	0	32758	
7418	0	32948	
7419	0	32752	
7420	0	32696	
7421	0	32648	
7422	0	32644	
7423	0	32592	
7424	0	32600	
7425	0	32624	
7426	0	32836	
7427	0	32760	
7428	0	32792	
7429	0	32780	
7430	0	32933	
7431	0	32808	
7432	0	32676	
7433	0	32676	
7434	0	32608	
7435	0	32781	
7436	0	32768	
7437	0	32860	
7438	0	33148	
7439	0	32956	
7440	0	32916	
7441	0	32956	
7442	0	32876	
7443	0	32612	
7444	0	32460	
7445	0	32632	
7446	0	32772	
7447	0	32760	
7448	0	32860	
7449	0	32864	
7450	0	32848	
7451	0	32824	
7452	0	32720	
7453	0	32856	
7454	0	32908	
7455	0	32816	
7456	0	32692	
7457	0	32736	
7458	0	32794	
7459	0	32696	
7460	0	32908	
7461	0	32800	
7462	0	32788	
7463	0	32780	
7464	0	32652	
7465	0	32662	
7466	0	33032	
7467	0	32836	
7468	0	32668	
7469	0	32780	
7470	0	32704	
7471	0	32652	
7472	0	32617	
7473	0	32900	
7474	0	33120	
7475	0	32888	
7476	0	32876	
7477	0	32860	
7478	0	32808	
7479	0	32616	
7480	0	32660	
7481	0	32609	
7482	0	32672	
7483	0	32600	
7484	0	32608	
7485	0	32668	
7486	0	32820	
7487	0	32800	
7488	0	32916	
7489	0	32888	
7490	0	33004	
7491	0	33032	
7492	0	32940	
7493	0	32877	
7494	0	32818	
7495	0	32692	
7496	0	32640	
7497	0	32656	
7498	0	32800	
7499	0	32729	
7500	0	32780	
7501	0	32748	
7502	0	32633	
7503	0	32496	
7504	0	32436	
7505	0	32669	
7506	0	32808	
7507	0	32724	
7508	0	32893	
7509	0	33013	
7510	0	32988	
7511	0	32778	
7512	0	32824	
7513	0	32765	
7514	0	32732	
7515	0	32764	
7516	0	32760	
7517	0	32800	
7518	0	32924	
7519	0	32844	
7520	0	32868	
7521	0	32796	
7522	0	32684	
7523	0	32636	
7524	0	32620	
7525	0	32676	
7526	0	32702	
7527	0	32768	
7528	0	32984	
7529	0	32960	
7530	0	32904	
7531	0	32736	
7532	0	32700	
7533	0	32832	
7534	0	32808	
7535	0	32704	
7536	0	32757	
7537	0	32816	
7538	0	32804	
7539	0	32624	
7540	0	32632	
7541	0	32756	
7542	0	32852	
7543	0	33014	
7544	0	32804	
7545	0	32740	
7546	0	32708	
7547	0	32544	
7548	0	32764	
7549	0	32865	
7550	0	32828	
7551	0	32736	
7552	0	32712	
7553	0	32948	
7554	0	32868	
7555	0	32844	
7556	0	32904	
7557	0	32856	
7558	0	32928	
7559	0	32704	
7560	0	32644	
7561	0	32616	
7562	0	32637	
7563	0	32588	
7564	0	32445	
7565	0	32561	
7566	0	32668	
7567	0	32692	
7568	0	32856	
7569	0	32804	
7570	0	33000	
7571	0	33052	
7572	0	33100	
7573	0	32956	
7574	0	32902	
7575	0	32844	
7576	0	32728	
7577	0	32864	
7578	0	32892	
7579	0	33000	
7580	0	32760	
7581	0	32540	
7582	0	32604	
7583	0	32620	
7584	0	32520	
7585	0	32775	
7586	0	32812	
7587	0	32760	
7588	0	33064	
7589	0	32932	
7590	0	32676	
7591	0	32636	
7592	0	32596	
7593	0	32644	
7594	0	32800	
7595	0	32908	
7596	0	32775	
7597	0	32896	
7598	0	33092	
7599	0	32972	
7600	0	32903	
7601	0	32728	
7602	0	32672	
7603	0	32592	
7604	0	32444	
7605	0	32612	
7606	0	32816	
7607	0	32720	
7608	0	32816	
7609	0	32862	
7610	0	32796	
7611	0	32852	
7612	0	32800	
7613	0	32656	
7614	0	32880	
7615	0	32780	
7616	0	32852	
7617	0	32864	
7618	0	32940	
7619	0	32773	
7620	0	32724	
7621	0	32604	
7622	0	32724	
7623	0	32828	
7624	0	32740	
7625	0	32964	
7626	0	32860	
7627	0	32624	
7628	0	32748	
7629	0	32744	
7630	0	32808	
7631	0	32762	
7632	0	32836	
7633	0	32805	
7634	0	32832	
7635	0	32976	
7636	0	32996	
7637	0	32788	
7638	0	32804	
7639	0	32532	
7640	0	32796	
7641	0	32685	
7642	0	32589	
7643	0	32548	
7644	0	32424	
7645	0	32748	
7646	0	32896	
7647	0	32948	
7648	0	32944	
7649	0	33014	
7650	0	32964	
7651	0	32948	
7652	0	32837	
7653	0	32774	
7654	0	32684	
7655	0	32644	
7656	0	32756	
7657	0	32852	
7658	0	32836	
7659	0	32744	
7660	0	32785	
7661	0	32820	
7662	0	32688	
7663	0	32628	
7664	0	32592	
7665	0	32757	
7666	0	32712	
7667	0	32620	
7668	0	32844	
7669	0	32966	
7670	0	32884	
7671	0	32804	
7672	0	32750	
7673	0	32748	
7674	0	32772	
7675	0	32796	
7676	0	32876	
7677	0	32956	
7678	0	32924	
7679	0	32744	
7680	0	32584	
7681	0	32524	
7682	0	32598	
7683	0	32740	
7684	0	32924	
7685	0	33164	
7686	0	33012	
7687	0	32696	
7688	0	32968	
7689	0	32972	
7690	0	32800	
7691	0	32798	
7692	0	32708	
7693	0	32727	
7694	0	32800	
7695	0	32895	
7696	0	32780	
7697	0	32796	
7698	0	32861	
7699	0	32724	
7700	0	32552	
7701	0	32616	
7702	0	32684	
7703	0	32660	
7704	0	32652	
7705	0	32672	
7706	0	32808	
7707	0	32768	
7708	0	32820	
7709	0	32860	
7710	0	32868	
7711	0	32845	
7712	0	32838	
7713	0	32876	
7714	0	32780	
7715	0	32792	
7716	0	32836	
7717	0	32794	
7718	0	32824	
7719	0	32656	
7720	0	32560	
7721	0	32512	
7722	0	32664	
7723	0	32728	
7724	0	32876	
7725	0	33069	
7726	0	32916	
7727	0	32732	
7728	0	32788	
7729	0	32884	
7730	0	32784	
7731	0	32804	
7732	0	32968	
7733	0	32728	
7734	0	32721	
7735	0	32716	
7736	0	32644	
7737	0	32804	
7738	0	32680	
7739	0	32708	
7740	0	32776	
7741	0	32804	
7742	0	32752	
7743	0	32740	
7744	0	32688	
7745	0	32716	
7746	0	32596	
7747	0	32600	
7748	0	32724	
7749	0	32728	
7750	0	32800	
7751	0	32980	
7752	0	33100	
7753	0	33084	
7754	0	33056	
7755	0	32964	
7756	0	32900	
7757	0	32924	
7758	0	32752	
7759	0	32716	
7760	0	32864	
7761	0	32756	
7762	0	32652	
7763	0	32644	
7764	0	32596	
7765	0	32644	
7766	0	32668	
7767	0	32772	
7768	0	32880	
7769	0	32742	
7770	0	32740	
7771	0	32820	
7772	0	32912	
7773	0	32732	
7774	0	32824	
7775	0	32901	
7776	0	32788	
7777	0	32828	
7778	0	32897	
7779	0	32710	
7780	0	32696	
7781	0	32756	
7782	0	32716	
7783	0	32964	
7784	0	32784	
7785	0	32698	
7786	0	32784	
7787	0	32677	
7788	0	32684	
7789	0	32770	
7790	0	32920	
7791	0	32872	
7792	0	32700	
7793	0	32692	
7794	0	32733	
7795	0	32784	
7796	0	32696	
7797	0	32948	
7798	0	32888	
7799	0	32644	
7800	0	32672	
7801	0	32640	
7802	0	32621	
7803	0	32604	
7804	0	32724	
7805	0	32848	
7806	0	32832	
7807	0	32836	
7808	0	32984	
7809	0	32916	
7810	0	32748	
7811	0	32804	
7812	0	32732	
7813	0	32804	
7814	0	32892	
7815	0	32856	
7816	0	32812	
7817	0	32796	
7818	0	32798	
7819	0	32804	
7820	0	33024	
7821	0	32816	
7822	0	32640	
7823	0	32576	
7824	0	32568	
7825	0	32608	
7826	0	32756	
7827	0	33008	
7828	0	32992	
7829	0	32758	
7830	0	32896	
7831	0	32612	
7832	0	32564	
7833	0	32806	
7834	0	32792	
7835	0	32828	
7836	0	32924	
7837	0	32970	
7838	0	32832	
7839	0	32700	
7840	0	32620	
7841	0	32556	
7842	0	32696	
7843	0	32604	
7844	0	32629	
7845	0	32700	
7846	0	32784	
7847	0	32888	
7848	0	32936	
7849	0	32980	
7850	0	32956	
7851	0	32812	
7852	0	32824	
7853	0	32749	
7854	0	32720	
7855	0	32868	
7856	0	33048	
7857	0	33128	
7858	0	33028	
7859	0	32820	
7860	0	32784	
7861	0	32688	
7862	0	32596	
7863	0	32436	
7864	0	32469	
7865	0	32620	
7866	0	32736	
7867	0	32740	
7868	0	32902	
7869	0	32832	
7870	0	32892	
7871	0	32820	
7872	0	32780	
7873	0	32880	
7874	0	32868	
7875	0	32756	
7876	0	32820	
7877	0	32809	
7878	0	32788	
7879	0	32730	
7880	0	32896	
7881	0	32791	
7882	0	32732	
7883	0	32568	
7884	0	32504	
7885	0	32644	
7886	0	32744	
7887	0	32756	
7888	0	32852	
7889	0	32900	
7890	0	32821	
7891	0	32685	
7892	0	32884	
7893	0	32928	
7894	0	32808	
7895	0	32824	
7896	0	32950	
7897	0	33008	
7898	0	32848	
7899	0	32760	
7900	0	32884	
7901	0	32848	
7902	0	32736	
7903	0	32544	
7904	0	32460	
7905	0	32568	
7906	0	32700	
7907	0	32736	
7908	0	32792	
7909	0	32924	
7910	0	32880	
7911	0	32952	
7912	0	32916	
7913	0	32800	
7914	0	32868	
7915	0	32965	
7916	0	32789	
7917	0	32752	
7918	0	32776	
7919	0	32776	
7920	0	32629	
7921	0	32628	
7922	0	32620	
7923	0	32524	
7924	0	32692	
7925	0	32904	
7926	0	32762	
7927	0	32488	
7928	0	32644	
7929	0	32760	
7930	0	32908	
7931	0	33261	
7932	0	33096	
7933	0	32972	
7934	0	32830	
7935	0	32616	
7936	0	32496	
7937	0	32793	
7938	0	32637	
7939	0	32720	
7940	0	32680	
7941	0	32756	
7942	0	32780	
7943	0	32657	
7944	0	32800	
7945	0	32772	
7946	0	32800	
7947	0	32836	
7948	0	32876	
7949	0	33040	
7950	0	33140	
7951	0	32920	
7952	0	32872	
7953	0	32833	
7954	0	32840	
7955	0	32748	
7956	0	32676	
7957	0	32688	
7958	0	32484	
7959	0	32640	
7960	0	32740	
7961	0	32612	
7962	0	32677	
7963	0	32688	
7964	0	32776	
7965	0	32748	
7966	0	32774	
7967	0	32872	
7968	0	32908	
7969	0	32992	
7970	0	32924	
7971	0	32828	
7972	0	32720	
7973	0	32780	
7974	0	32860	
7975	0	32869	
7976	0	32804	
7977	0	32932	
7978	0	32756	
7979	0	32673	
7980	0	32668	
7981	0	32572	
7982	0	32624	
7983	0	32548	
7984	0	32780	
7985	0	32876	
7986	0	32596	
7987	0	32660	
7988	0	32740	
7989	0	32980	
7990	0	33188	
7991	0	33132	
7992	0	32804	
7993	0	32788	
7994	0	32740	
7995	0	32744	
7996	0	32788	
7997	0	32885	
7998	0	32796	
7999	0	32728	
8000	0	32700	
8001	0	32609	
8002	0	32556	
8003	0	32449	
8004	0	32636	
8005	0	32753	
8006	0	32748	
8007	0	32860	
8008	0	32868	
8009	0	33009	
8010	0	33148	
8011	0	32909	
8012	0	32788	
8013	0	32772	
8014	0	32660	
8015	0	32844	
8016	0	32880	
8017	0	32924	
8018	0	32668	
8019	0	32628	
8020	0	32844	
8021	0	32820	
8022	0	32784	
8023	0	32430	
8024	0	32570	
8025	0	32760	
8026	0	32768	
8027	0	32736	
8028	0	32700	
8029	0	32936	
8030	0	33000	
8031	0	32969	
8032	0	32916	
8033	0	32932	
8034	0	33044	
8035	0	32800	
8036	0	32676	
8037	0	32736	
8038	0	32540	
8039	0	32540	
8040	0	32640	
8041	0	32684	
8042	0	32916	
8043	0	32732	
8044	0	32812	
8045	0	32782	
8046	0	32696	
8047	0	32804	
8048	0	32888	
8049	0	32992	
8050	0	32831	
8051	0	32824	
8052	0	32826	
8053	0	32972	
8054	0	32828	
8055	0	32778	
8056	0	32756	
8057	0	32892	
8058	0	32628	
8059	0	32608	
8060	0	32728	
8061	0	32596	
8062	0	32796	
8063	0	32644	
8064	0	32696	
8065	0	32644	
8066	0	32688	
8067	0	32776	
8068	0	33032	
8069	0	33005	
8070	0	32900	
8071	0	32816	
8072	0	32864	
8073	0	32912	
8074	0	32758	
8075	0	32772	
8076	0	32688	
8077	0	32812	
8078	0	32744	
8079	0	32868	
8080	0	32920	
8081	0	32792	
8082	0	32692	
8083	0	32628	
8084	0	32676	
8085	0	32710	
8086	0	32628	
8087	0	32756	
8088	0	32936	
8089	0	32812	
8090	0	32692	
8091	0	32684	
8092	0	32708	
8093	0	32804	
8094	0	32936	
8095	0	32932	
8096	0	33052	
8097	0	33096	
8098	0	32710	
8099	0	32540	
8100	0	32584	
8101	0	32756	
8102	0	32813	
8103	0	32524	
8104	0	32616	
8105	0	32620	
8106	0	32820	
8107	0	32877	
8108	0	32829	
8109	0	32848	
8110	0	32924	
8111	0	32788	
8112	0	32764	
8113	0	32740	
8114	0	32708	
8115	0	32776	
8116	0	32844	
8117	0	32936	
8118	0	33044	
8119	0	32976	
8120	0	32652	
8121	0	32764	
8122	0	32592	
8123	0	32536	
8124	0	32594	
8125	0	32741	
8126	0	32648	
8127	0	32728	
8128	0	32992	
8129	0	33085	
8130	0	32872	
8131	0	32600	
8132	0	32708	
8133	0	32672	
8134	0	32640	
8135	0	32656	
8136	0	32800	
8137	0	33276	
8138	0	32992	
8139	0	32676	
8140	0	32470	
8141	0	32556	
8142	0	32812	
8143	0	32576	
8144	0	32796	
8145	0	32848	
8146	0	32704	
8147	0	32820	
8148	0	32832	
8149	0	32836	
8150	0	32902	
8151	0	33004	
8152	0	32896	
8153	0	32708	
8154	0	32696	
8155	0	32672	
8156	0	32677	
8157	0	32781	
8158	0	32721	
8159	0	32888	
8160	0	32984	
8161	0	32820	
8162	0	32672	
8163	0	32700	
8164	0	32872	
8165	0	32901	
8166	0	32612	
8167	0	32616	
8168	0	32604	
8169	0	32709	
8170	0	32760	
8171	0	32776	
8172	0	32904	
8173	0	32896	
8174	0	32969	
8175	0	32740	
8176	0	32736	
8177	0	32784	
8178	0	32692	
8179	0	32776	
8180	0	32824	
8181	0	32952	
8182	0	32808	
8183	0	32596	
8184	0	32522	
8185	0	32644	
8186	0	32800	
8187	0	33016	
8188	0	32984	
8189	0	32812	
8190	0	32924	
8191	0	32692	
8192	0	32589	
8193	0	32561	
8194	0	32716	
8195	0	32812	
8196	0	32848	
8197	0	32976	
8198	0	32973	
8199	0	32752	
8200	0	32728	
8201	0	32612	
8202	0	32644	
8203	0	32536	
8204	0	32772	
8205	0	32716	
8206	0	32700	
8207	0	32804	
8208	0	32911	
8209	0	32884	
8210	0	32888	
8211	0	33052	
8212	0	32924	
8213	0	32688	
8214	0	32736	
8215	0	32768	
8216	0	32604	
8217	0	32844	
8218	0	32788	
8219	0	32812	
8220	0	32964	
8221	0	32900	
8222	0	32844	
8223	0	32500	
8224	0	32912	
8225	0	32828	
8226	0	32582	
8227	0	32584	
8228	0	32608	
8229	0	32592	
8230	0	32704	
8231	0	32870	
8232	0	33060	
8233	0	33232	
8234	0	32908	
8235	0	32792	
8236	0	32952	
8237	0	32832	
8238	0	32552	
8239	0	32558	
8240	0	32612	
8241	0	32796	
8242	0	33009	
8243	0	32760	
8244	0	32730	
8245	0	32764	
8246	0	32720	
8247	0	32860	
8248	0	32952	
8249	0	32801	
8250	0	32720	
8251	0	32840	
8252	0	32868	
8253	0	32804	
8254	0	32869	
8255	0	32809	
8256	0	32728	
8257	0	32784	
8258	0	32653	
8259	0	32604	
8260	0	32656	
8261	0	32572	
8262	0	32736	
8263	0	32612	
8264	0	32668	
8265	0	32804	
8266	0	32964	
8267	0	33140	
8268	0	33036	
8269	0	32848	
8270	0	32748	
8271	0	32768	
8272	0	32740	
8273	0	32692	
8274	0	32798	
8275	0	32764	
8276	0	32900	
8277	0	33172	
8278	0	32912	
8279	0	32652	
8280	0	32768	
8281	0	32640	
8282	0	32532	
8283	0	32384	
8284	0	32544	
8285	0	32764	
8286	0	32768	
8287	0	32856	
8288	0	32704	
8289	0	32736	
8290	0	32796	
8291	0	32629	
8292	0	32740	
8293	0	32892	
8294	0	32936	
8295	0	32876	
8296	0	33020	
8297	0	33036	
8298	0	32840	
8299	0	32812	
8300	0	32584	
8301	0	32732	
8302	0	32868	
8303	0	32752	
8304	0	32700	
8305	0	32838	
8306	0	32624	
8307	0	32880	
8308	0	32912	
8309	0	32836	
8310	0	32710	
8311	0	32752	
8312	0	32792	
8313	0	32868	
8314	0	32848	
8315	0	32908	
8316	0	32776	
8317	0	32818	
8318	0	32776	
8319	0	32940	
8320	0	32764	
8321	0	32724	
8322	0	32948	
8323	0	32766	
8324	0	32796	
8325	0	32536	
8326	0	32365	
8327	0	32672	
8328	0	32748	
8329	0	32744	
8330	0	32837	
8331	0	32812	
8332	0	32789	
8333	0	32704	
8334	0	32736	
8335	0	32749	
8336	0	33016	
8337	0	33224	
8338	0	32872	
8339	0	32744	
8340	0	32756	
8341	0	32668	
8342	0	32672	
8343	0	32616	
8344	0	32612	
8345	0	32696	
8346	0	32748	
8347	0	32932	
8348	0	32912	
8349	0	32920	
8350	0	32820	
8351	0	32780	
8352	0	32612	
8353	0	32724	
8354	0	32716	
8355	0	32804	
8356	0	32901	
8357	0	33096	
8358	0	32828	
8359	0	32900	
8360	0	32996	
8361	0	32734	
8362	0	32548	
8363	0	32452	
8364	0	32596	
8365	0	32840	
8366	0	32772	
8367	0	32836	
8368	0	32774	
8369	0	32761	
8370	0	32869	
8371	0	32912	
8372	0	32816	
8373	0	32796	
8374	0	32856	
8375	0	32784	
8376	0	32729	
8377	0	32908	
8378	0	32654	
8379	0	32577	
8380	0	32676	
8381	0	32704	
8382	0	32864	
8383	0	32724	
8384	0	32720	
8385	0	32581	
8386	0	32640	
8387	0	33076	
8388	0	33112	
8389	0	32972	
8390	0	32808	
8391	0	32584	
8392	0	32620	
8393	0	32864	
8394	0	32864	
8395	0	32837	
8396	0	32820	
8397	0	32796	
8398	0	32728	
8399	0	32676	
8400	0	32596	
8401	0	32653	
8402	0	32792	
8403	0	32644	
8404	0	33032	
8405	0	32990	
8406	0	32800	
8407	0	32700	
8408	0	32628	
8409	0	32668	
8410	0	32884	
8411	0	32768	
8412	0	32772	
8413	0	32840	
8414	0	32668	
8415	0	32844	
8416	0	32892	
8417	0	32856	
8418	0	32764	
8419	0	32820	
8420	0	32844	
8421	0	32900	
8422	0	32804	
8423	0	32700	
8424	0	32756	
8425	0	32578	
8426	0	32548	
8427	0	32712	
8428	0	32704	
8429	0	32864	
8430	0	32964	
8431	0	32996	
8432	0	32800	
8433	0	32720	
8434	0	32656	
8435	0	32840	
8436	0	33064	
8437	0	33116	
8438	0	32752	
8439	0	32760	
8440	0	32736	
8441	0	32672	
8442	0	32668	
8443	0	32584	
8444	0	32648	
8445	0	32504	
8446	0	32532	
8447	0	32868	
8448	0	33028	
8449	0	33084	
8450	0	32984	
8451	0	32840	
8452	0	32692	
8453	0	32752	
8454	0	32728	
8455	0	32725	
8456	0	32784	
8457	0	32896	
8458	0	32772	
8459	0	32836	
8460	0	32736	
8461	0	32784	
8462	0	32752	
8463	0	32580	
8464	0	32622	
8465	0	32744	
8466	0	32780	
8467	0	32932	
8468	0	32860	
8469	0	32880	
8470	0	32840	
8471	0	32708	
8472	0	32740	
8473	0	32744	
8474	0	32688	
8475	0	32676	
8476	0	32972	
8477	0	33060	
8478	0	33020	
8479	0	32924	
8480	0	32408	
8481	0	32476	
8482	0	32588	
8483	0	32389	
8484	0	32612	
8485	0	32797	
8486	0	32820	
8487	0	33064	
8488	0	32944	
8489	0	32996	
8490	0	32912	
8491	0	32680	
8492	0	32732	
8493	0	32772	
8494	0	32796	
8495	0	32728	
8496	0	32824	
8497	0	32876	
8498	0	32756	
8499	0	32704	
8500	0	32792	
8501	0	32740	
8502	0	32725	
8503	0	32600	
8504	0	32484	
8505	0	32616	
8506	0	32536	
8507	0	32892	
8508	0	33396	
8509	0	33217	
8510	0	32888	
8511	0	32905	
8512	0	32936	
8513	0	32876	
8514	0	32762	
8515	0	32600	
8516	0	32608	
8517	0	32700	
8518	0	32524	
8519	0	32412	
8520	0	32676	
8521	0	33072	
8522	0	32848	
8523	0	32628	
8524	0	32780	
8525	0	32792	
8526	0	32680	
8527	0	32928	
8528	0	32813	
8529	0	32788	
8530	0	32705	
8531	0	32672	
8532	0	32696	
8533	0	32756	
8534	0	32920	
8535	0	33098	
8536	0	32924	
8537	0	32872	
8538	0	32873	
8539	0	32868	
8540	0	32784	
8541	0	32616	
8542	0	32584	
8543	0	32448	
8544	0	32552	
8545	0	32680	
8546	0	32881	
8547	0	32904	
8548	0	32736	
8549	0	32792	
8550	0	32777	
8551	0	32760	
8552	0	32816	
8553	0	32793	
8554	0	32844	
8555	0	32864	
8556	0	32928	
8557	0	32982	
8558	0	32765	
8559	0	32624	
8560	0	32588	
8561	0	32716	
8562	0	32672	
8563	0	32576	
8564	0	32652	
8565	0	32772	
8566	0	32688	
8567	0	32992	
8568	0	32944	
8569	0	33016	
8570	0	33012	
8571	0	32785	
8572	0	32656	
8573	0	32724	
8574	0	32924	
8575	0	32894	
8576	0	32832	
8577	0	32678	
8578	0	32680	
8579	0	32708	
8580	0	32548	
8581	0	32700	
8582	0	32732	
8583	0	32716	
8584	0	32708	
8585	0	32700	
8586	0	32825	
8587	0	32933	
8588	0	32888	
8589	0	32832	
8590	0	32836	
8591	0	32848	
8592	0	32749	
8593	0	32716	
8594	0	32672	
8595	0	32672	
8596	0	32660	
8597	0	32812	
8598	0	32784	
8599	0	32764	
8600	0	32718	
8601	0	32933	
8602	0	32996	
8603	0	32901	
8604	0	33028	
8605	0	33009	
8606	0	32768	
8607	0	32728	
8608	0	32604	
8609	0	32684	
8610	0	32692	
8611	0	32694	
8612	0	32724	
8613	0	32804	
