# OpenSignals Text File Format. Version 1
# {"00:07:80:4D:2E:9E": {"position": 0, "device": "biosignalsplux", "device name": "00:07:80:4D:2E:9E", "device connection": "BTH00:07:80:4D:2E:9E", "sampling rate": 1000, "resolution": [16], "firmware version": 774, "comments": "", "keywords": "", "mode": 0, "sync interval": 2, "date": "2020-7-25", "time": "19:51:39.901", "channels": [1], "sensor": ["EMG"], "label": ["CH1"], "column": ["nSeq", "DI", "CH1"], "special": [{}], "digital IO": [0, 1]}}
# EndOfHeader
0	0	32712	
1	0	32620	
2	0	32588	
3	0	32612	
4	0	32544	
5	0	32420	
6	0	32648	
7	0	32768	
8	0	32892	
9	0	32924	
10	0	32940	
11	0	32936	
12	0	32844	
13	0	32828	
14	0	32840	
15	0	32924	
16	0	32972	
17	0	32997	
18	0	33012	
19	0	32753	
20	0	32688	
21	0	32712	
22	0	32680	
23	0	32557	
24	0	32412	
25	0	32448	
26	0	32740	
27	0	32804	
28	0	32968	
29	0	32840	
30	0	32815	
31	0	32644	
32	0	32692	
33	0	32832	
34	0	32836	
35	0	32860	
36	0	32864	
37	0	32860	
38	0	32996	
39	0	32908	
40	0	32688	
41	0	32704	
42	0	32724	
43	0	32680	
44	0	32552	
45	0	32508	
46	0	32668	
47	0	32662	
48	0	32792	
49	0	32868	
50	0	32900	
51	0	32964	
52	0	32896	
53	0	32929	
54	0	32804	
55	0	32876	
56	0	32852	
57	0	32893	
58	0	33008	
59	0	32849	
60	0	32740	
61	0	32912	
62	0	32660	
63	0	32504	
64	0	32264	
65	0	32492	
66	0	32664	
67	0	32712	
68	0	32880	
69	0	33008	
70	0	33072	
71	0	32912	
72	0	32896	
73	0	32784	
74	0	32824	
75	0	32932	
76	0	32885	
77	0	32908	
78	0	32940	
79	0	32728	
80	0	32648	
81	0	32545	
82	0	32494	
83	0	32632	
84	0	32584	
85	0	32652	
86	0	32548	
87	0	32581	
88	0	32806	
89	0	32870	
90	0	32897	
91	0	32840	
92	0	32792	
93	0	33016	
94	0	33128	
95	0	33108	
96	0	32901	
97	0	32816	
98	0	32996	
99	0	32805	
100	0	32648	
101	0	32560	
102	0	32496	
103	0	32556	
104	0	32532	
105	0	32568	
106	0	32612	
107	0	32744	
108	0	33060	
109	0	33060	
110	0	32876	
111	0	32760	
112	0	32920	
113	0	32800	
114	0	32832	
115	0	32844	
116	0	32836	
117	0	32845	
118	0	33024	
119	0	32808	
120	0	32744	
121	0	32764	
122	0	32784	
123	0	32724	
124	0	32460	
125	0	32568	
126	0	32676	
127	0	32660	
128	0	32956	
129	0	32900	
130	0	32772	
131	0	32868	
132	0	32814	
133	0	32764	
134	0	32974	
135	0	32900	
136	0	32761	
137	0	32792	
138	0	32908	
139	0	32716	
140	0	32704	
141	0	32670	
142	0	32612	
143	0	32672	
144	0	32492	
145	0	32668	
146	0	32816	
147	0	32828	
148	0	32836	
149	0	33052	
150	0	32932	
151	0	32856	
152	0	32820	
153	0	32804	
154	0	32904	
155	0	32800	
156	0	32796	
157	0	32896	
158	0	33008	
159	0	32868	
160	0	32772	
161	0	32824	
162	0	32816	
163	0	32788	
164	0	32457	
165	0	32552	
166	0	32748	
167	0	32936	
168	0	32904	
169	0	32908	
170	0	32740	
171	0	32752	
172	0	32732	
173	0	32776	
174	0	32832	
175	0	32900	
176	0	32844	
177	0	32812	
178	0	32904	
179	0	32720	
180	0	32661	
181	0	32632	
182	0	32632	
183	0	32640	
184	0	32548	
185	0	32568	
186	0	32692	
187	0	32820	
188	0	33028	
189	0	33040	
190	0	32832	
191	0	32752	
192	0	32797	
193	0	32868	
194	0	32928	
195	0	32928	
196	0	32812	
197	0	32756	
198	0	32829	
199	0	32608	
200	0	32752	
201	0	32740	
202	0	32676	
203	0	32652	
204	0	32528	
205	0	32668	
206	0	32756	
207	0	32730	
208	0	33000	
209	0	32968	
210	0	32872	
211	0	32868	
212	0	32799	
213	0	32632	
214	0	32720	
215	0	32736	
216	0	32832	
217	0	32989	
218	0	33192	
219	0	32852	
220	0	32528	
221	0	32616	
222	0	32760	
223	0	32644	
224	0	32384	
225	0	32656	
226	0	32704	
227	0	32645	
228	0	32933	
229	0	32906	
230	0	32944	
231	0	32904	
232	0	32860	
233	0	32952	
234	0	32924	
235	0	32804	
236	0	32756	
237	0	32788	
238	0	32932	
239	0	32776	
240	0	32649	
241	0	32592	
242	0	32656	
243	0	32728	
244	0	32540	
245	0	32780	
246	0	32864	
247	0	32852	
248	0	32949	
249	0	32760	
250	0	32720	
251	0	32704	
252	0	32768	
253	0	32708	
254	0	32968	
255	0	33012	
256	0	32884	
257	0	32964	
258	0	32952	
259	0	32784	
260	0	32684	
261	0	32564	
262	0	32560	
263	0	32680	
264	0	32596	
265	0	32664	
266	0	32624	
267	0	32596	
268	0	32748	
269	0	32917	
270	0	32972	
271	0	32856	
272	0	32852	
273	0	32880	
274	0	32908	
275	0	32900	
276	0	32908	
277	0	32932	
278	0	33141	
279	0	32924	
280	0	32672	
281	0	32560	
282	0	32684	
283	0	32572	
284	0	32477	
285	0	32548	
286	0	32724	
287	0	32538	
288	0	32800	
289	0	32864	
290	0	32764	
291	0	32816	
292	0	32905	
293	0	33036	
294	0	33061	
295	0	33036	
296	0	32912	
297	0	32948	
298	0	32888	
299	0	32717	
300	0	32609	
301	0	32644	
302	0	32668	
303	0	32612	
304	0	32345	
305	0	32592	
306	0	32828	
307	0	32684	
308	0	33016	
309	0	33046	
310	0	32976	
311	0	32804	
312	0	32836	
313	0	32842	
314	0	32644	
315	0	32776	
316	0	32820	
317	0	32929	
318	0	33004	
319	0	32777	
320	0	32716	
321	0	32552	
322	0	32580	
323	0	32580	
324	0	32408	
325	0	32676	
326	0	32756	
327	0	32780	
328	0	32884	
329	0	32977	
330	0	32968	
331	0	32952	
332	0	32832	
333	0	32781	
334	0	32860	
335	0	32933	
336	0	32852	
337	0	32932	
338	0	32945	
339	0	32696	
340	0	32596	
341	0	32576	
342	0	32604	
343	0	32669	
344	0	32466	
345	0	32692	
346	0	32820	
347	0	32873	
348	0	33124	
349	0	33144	
350	0	32892	
351	0	32696	
352	0	32600	
353	0	32740	
354	0	32860	
355	0	32844	
356	0	32684	
357	0	32928	
358	0	32900	
359	0	32684	
360	0	32737	
361	0	32684	
362	0	32740	
363	0	32592	
364	0	32553	
365	0	32668	
366	0	32812	
367	0	32720	
368	0	32844	
369	0	32864	
370	0	32876	
371	0	32800	
372	0	32824	
373	0	32800	
374	0	32932	
375	0	33016	
376	0	32916	
377	0	33064	
378	0	33053	
379	0	32757	
380	0	32564	
381	0	32472	
382	0	32576	
383	0	32614	
384	0	32685	
385	0	32728	
386	0	32601	
387	0	32572	
388	0	32848	
389	0	32872	
390	0	32800	
391	0	32900	
392	0	33020	
393	0	32942	
394	0	32908	
395	0	32872	
396	0	32832	
397	0	32844	
398	0	32736	
399	0	32612	
400	0	32604	
401	0	32572	
402	0	32760	
403	0	32624	
404	0	32604	
405	0	32752	
406	0	32720	
407	0	32708	
408	0	33128	
409	0	33096	
410	0	32912	
411	0	32832	
412	0	32732	
413	0	32680	
414	0	32760	
415	0	32820	
416	0	32788	
417	0	32884	
418	0	32900	
419	0	32736	
420	0	32644	
421	0	32544	
422	0	32600	
423	0	32540	
424	0	32612	
425	0	32712	
426	0	32832	
427	0	32820	
428	0	33020	
429	0	33108	
430	0	32916	
431	0	32792	
432	0	32832	
433	0	32892	
434	0	32741	
435	0	32780	
436	0	32840	
437	0	32988	
438	0	32832	
439	0	32728	
440	0	32700	
441	0	32592	
442	0	32684	
443	0	32516	
444	0	32568	
445	0	32744	
446	0	32728	
447	0	32814	
448	0	32868	
449	0	32888	
450	0	32974	
451	0	32968	
452	0	32901	
453	0	32772	
454	0	32956	
455	0	32892	
456	0	32824	
457	0	32834	
458	0	32776	
459	0	32684	
460	0	32628	
461	0	32636	
462	0	32684	
463	0	32564	
464	0	32584	
465	0	32664	
466	0	32776	
467	0	32808	
468	0	32864	
469	0	32884	
470	0	32908	
471	0	32976	
472	0	32996	
473	0	32831	
474	0	32805	
475	0	32922	
476	0	32868	
477	0	32984	
478	0	32864	
479	0	32796	
480	0	32640	
481	0	32640	
482	0	32584	
483	0	32436	
484	0	32592	
485	0	32576	
486	0	32798	
487	0	32968	
488	0	32856	
489	0	32934	
490	0	32864	
491	0	32916	
492	0	32900	
493	0	32833	
494	0	32892	
495	0	32845	
496	0	32844	
497	0	33036	
498	0	32784	
499	0	32688	
500	0	32652	
501	0	32720	
502	0	32744	
503	0	32496	
504	0	32692	
505	0	32828	
506	0	32708	
507	0	32780	
508	0	32985	
509	0	33012	
510	0	32948	
511	0	32772	
512	0	32706	
513	0	32768	
514	0	32704	
515	0	32724	
516	0	32740	
517	0	32942	
518	0	32824	
519	0	32744	
520	0	32672	
521	0	32741	
522	0	32804	
523	0	32493	
524	0	32521	
525	0	32576	
526	0	32620	
527	0	32780	
528	0	32928	
529	0	33012	
530	0	32952	
531	0	32880	
532	0	32828	
533	0	32948	
534	0	32928	
535	0	32796	
536	0	32716	
537	0	32960	
538	0	32940	
539	0	32776	
540	0	32716	
541	0	32636	
542	0	32645	
543	0	32396	
544	0	32536	
545	0	32656	
546	0	32800	
547	0	32908	
548	0	32980	
549	0	32904	
550	0	32904	
551	0	32912	
552	0	32848	
553	0	32830	
554	0	32804	
555	0	32796	
556	0	32768	
557	0	32900	
558	0	32864	
559	0	32804	
560	0	32752	
561	0	32613	
562	0	32620	
563	0	32456	
564	0	32636	
565	0	32836	
566	0	32671	
567	0	32964	
568	0	32928	
569	0	32880	
570	0	32884	
571	0	32880	
572	0	32880	
573	0	32800	
574	0	32812	
575	0	32788	
576	0	32760	
577	0	32968	
578	0	32776	
579	0	32696	
580	0	32744	
581	0	32592	
582	0	32720	
583	0	32484	
584	0	32572	
585	0	32705	
586	0	32772	
587	0	33012	
588	0	32952	
589	0	32908	
590	0	32880	
591	0	32848	
592	0	32912	
593	0	32808	
594	0	32825	
595	0	32932	
596	0	32732	
597	0	32828	
598	0	32568	
599	0	32652	
600	0	32676	
601	0	32880	
602	0	32700	
603	0	32520	
604	0	32656	
605	0	32676	
606	0	32704	
607	0	32788	
608	0	32880	
609	0	32916	
610	0	32960	
611	0	33068	
612	0	32940	
613	0	32716	
614	0	32677	
615	0	32680	
616	0	32668	
617	0	32884	
618	0	32804	
619	0	32800	
620	0	32780	
621	0	32702	
622	0	32632	
623	0	32492	
624	0	32684	
625	0	32809	
626	0	32592	
627	0	32744	
628	0	32878	
629	0	32900	
630	0	32948	
631	0	32912	
632	0	32900	
633	0	32940	
634	0	32924	
635	0	32848	
636	0	32751	
637	0	32980	
638	0	32800	
639	0	32732	
640	0	32660	
641	0	32608	
642	0	32605	
643	0	32332	
644	0	32564	
645	0	32669	
646	0	32614	
647	0	32864	
648	0	33008	
649	0	32988	
650	0	32924	
651	0	32745	
652	0	32952	
653	0	33057	
654	0	32968	
655	0	32832	
656	0	32832	
657	0	32904	
658	0	32750	
659	0	32638	
660	0	32597	
661	0	32592	
662	0	32592	
663	0	32464	
664	0	32573	
665	0	32676	
666	0	32638	
667	0	32812	
668	0	32913	
669	0	33046	
670	0	33052	
671	0	32868	
672	0	32836	
673	0	32805	
674	0	32857	
675	0	32904	
676	0	32932	
677	0	33088	
678	0	32836	
679	0	32704	
680	0	32564	
681	0	32652	
682	0	32692	
683	0	32548	
684	0	32682	
685	0	32588	
686	0	32500	
687	0	32836	
688	0	33028	
689	0	32924	
690	0	32860	
691	0	32868	
692	0	32840	
693	0	32844	
694	0	32892	
695	0	32936	
696	0	33024	
697	0	33016	
698	0	32661	
699	0	32724	
700	0	32556	
701	0	32518	
702	0	32545	
703	0	32416	
704	0	32646	
705	0	32780	
706	0	32704	
707	0	32992	
708	0	32964	
709	0	32945	
710	0	32880	
711	0	32833	
712	0	32812	
713	0	32905	
714	0	32804	
715	0	32760	
716	0	32964	
717	0	32973	
718	0	32732	
719	0	32680	
720	0	32732	
721	0	32544	
722	0	32580	
723	0	32612	
724	0	32644	
725	0	32732	
726	0	32764	
727	0	32981	
728	0	32836	
729	0	32826	
730	0	32856	
731	0	32796	
732	0	32801	
733	0	32916	
734	0	32872	
735	0	32844	
736	0	32816	
737	0	33016	
738	0	32756	
739	0	32588	
740	0	32505	
741	0	32500	
742	0	32616	
743	0	32592	
744	0	32796	
745	0	32808	
746	0	32620	
747	0	32778	
748	0	32848	
749	0	32788	
750	0	32920	
751	0	32932	
752	0	32980	
753	0	33060	
754	0	32920	
755	0	32880	
756	0	32908	
757	0	32829	
758	0	32652	
759	0	32624	
760	0	32604	
761	0	32732	
762	0	32684	
763	0	32494	
764	0	32588	
765	0	32720	
766	0	32648	
767	0	32860	
768	0	32861	
769	0	32912	
770	0	33092	
771	0	32996	
772	0	32808	
773	0	32820	
774	0	32824	
775	0	32876	
776	0	32928	
777	0	32924	
778	0	32704	
779	0	32693	
780	0	32692	
781	0	32757	
782	0	32668	
783	0	32432	
784	0	32614	
785	0	32492	
786	0	32632	
787	0	32944	
788	0	33041	
789	0	32952	
790	0	32953	
791	0	32844	
792	0	32860	
793	0	32868	
794	0	32876	
795	0	32800	
796	0	32812	
797	0	32748	
798	0	32693	
799	0	32548	
800	0	32608	
801	0	32856	
802	0	32669	
803	0	32524	
804	0	32708	
805	0	32776	
806	0	32788	
807	0	32856	
808	0	32952	
809	0	32956	
810	0	32856	
811	0	32777	
812	0	32860	
813	0	32884	
814	0	32828	
815	0	32814	
816	0	32992	
817	0	32822	
818	0	32700	
819	0	32612	
820	0	32584	
821	0	32640	
822	0	32661	
823	0	32704	
824	0	32740	
825	0	32807	
826	0	32940	
827	0	33004	
828	0	32968	
829	0	32912	
830	0	32840	
831	0	32838	
832	0	32908	
833	0	32960	
834	0	32792	
835	0	32720	
836	0	32840	
837	0	32736	
838	0	32756	
839	0	32769	
840	0	32673	
841	0	32500	
842	0	32448	
843	0	32465	
844	0	32616	
845	0	32776	
846	0	32832	
847	0	32960	
848	0	32960	
849	0	32983	
850	0	32864	
851	0	32852	
852	0	32924	
853	0	32896	
854	0	32836	
855	0	32908	
856	0	32864	
857	0	32829	
858	0	32688	
859	0	32740	
860	0	32696	
861	0	32620	
862	0	32476	
863	0	32552	
864	0	32548	
865	0	32756	
866	0	32968	
867	0	32957	
868	0	32904	
869	0	32804	
870	0	32816	
871	0	32900	
872	0	32900	
873	0	32768	
874	0	32793	
875	0	32768	
876	0	32856	
877	0	32732	
878	0	32696	
879	0	32701	
880	0	32688	
881	0	32704	
882	0	32556	
883	0	32568	
884	0	32640	
885	0	32700	
886	0	32816	
887	0	32956	
888	0	32876	
889	0	32924	
890	0	32916	
891	0	32940	
892	0	32884	
893	0	32916	
894	0	32817	
895	0	32752	
896	0	32900	
897	0	32856	
898	0	32900	
899	0	32696	
900	0	32630	
901	0	32732	
902	0	32545	
903	0	32612	
904	0	32552	
905	0	32620	
906	0	32876	
907	0	33012	
908	0	32952	
909	0	32928	
910	0	32756	
911	0	32685	
912	0	32820	
913	0	32768	
914	0	32893	
915	0	32880	
916	0	32920	
917	0	32788	
918	0	32656	
919	0	32640	
920	0	32644	
921	0	32812	
922	0	32652	
923	0	32624	
924	0	32768	
925	0	32776	
926	0	32804	
927	0	32992	
928	0	32913	
929	0	32916	
930	0	32804	
931	0	32772	
932	0	32798	
933	0	32902	
934	0	32824	
935	0	32856	
936	0	33088	
937	0	32885	
938	0	32740	
939	0	32504	
940	0	32616	
941	0	32652	
942	0	32452	
943	0	32520	
944	0	32664	
945	0	32728	
946	0	32804	
947	0	32808	
948	0	32774	
949	0	32925	
950	0	32952	
951	0	32892	
952	0	32814	
953	0	32896	
954	0	32924	
955	0	32812	
956	0	32988	
957	0	32732	
958	0	32613	
959	0	32604	
960	0	32536	
961	0	32657	
962	0	32524	
963	0	32556	
964	0	32604	
965	0	32608	
966	0	32820	
967	0	32932	
968	0	33028	
969	0	32860	
970	0	32928	
971	0	33084	
972	0	32968	
973	0	32816	
974	0	32792	
975	0	32804	
976	0	32996	
977	0	32734	
978	0	32729	
979	0	32732	
980	0	32596	
981	0	32656	
982	0	32324	
983	0	32596	
984	0	32705	
985	0	32676	
986	0	32896	
987	0	32904	
988	0	32636	
989	0	32920	
990	0	32968	
991	0	32964	
992	0	33092	
993	0	32956	
994	0	32816	
995	0	32764	
996	0	32896	
997	0	32696	
998	0	32648	
999	0	32508	
1000	0	32632	
1001	0	32644	
1002	0	32504	
1003	0	32672	
1004	0	32720	
1005	0	32752	
1006	0	32924	
1007	0	32896	
1008	0	32948	
1009	0	32968	
1010	0	32844	
1011	0	32790	
1012	0	32876	
1013	0	32872	
1014	0	32720	
1015	0	32636	
1016	0	32940	
1017	0	32788	
1018	0	32752	
1019	0	32764	
1020	0	32728	
1021	0	32736	
1022	0	32392	
1023	0	32552	
1024	0	32684	
1025	0	32708	
1026	0	32832	
1027	0	33024	
1028	0	32918	
1029	0	32940	
1030	0	32964	
1031	0	32813	
1032	0	32904	
1033	0	32796	
1034	0	32684	
1035	0	32756	
1036	0	32904	
1037	0	32868	
1038	0	32722	
1039	0	32600	
1040	0	32604	
1041	0	32708	
1042	0	32460	
1043	0	32580	
1044	0	32760	
1045	0	32773	
1046	0	32844	
1047	0	32934	
1048	0	32936	
1049	0	32908	
1050	0	32852	
1051	0	32822	
1052	0	32828	
1053	0	32880	
1054	0	32897	
1055	0	32868	
1056	0	33104	
1057	0	32784	
1058	0	32662	
1059	0	32696	
1060	0	32576	
1061	0	32604	
1062	0	32396	
1063	0	32576	
1064	0	32736	
1065	0	32756	
1066	0	32872	
1067	0	32929	
1068	0	32880	
1069	0	32932	
1070	0	32868	
1071	0	32752	
1072	0	32916	
1073	0	33013	
1074	0	32880	
1075	0	32734	
1076	0	32940	
1077	0	32844	
1078	0	32692	
1079	0	32644	
1080	0	32580	
1081	0	32552	
1082	0	32364	
1083	0	32500	
1084	0	32732	
1085	0	32644	
1086	0	32888	
1087	0	32912	
1088	0	33072	
1089	0	32997	
1090	0	32956	
1091	0	32812	
1092	0	32772	
1093	0	32972	
1094	0	32784	
1095	0	32804	
1096	0	32944	
1097	0	32824	
1098	0	32728	
1099	0	32648	
1100	0	32576	
1101	0	32676	
1102	0	32552	
1103	0	32476	
1104	0	32672	
1105	0	32624	
1106	0	32924	
1107	0	32868	
1108	0	32910	
1109	0	32980	
1110	0	32856	
1111	0	32904	
1112	0	32900	
1113	0	32765	
1114	0	32772	
1115	0	32872	
1116	0	33044	
1117	0	32760	
1118	0	32608	
1119	0	32608	
1120	0	32664	
1121	0	32584	
1122	0	32500	
1123	0	32572	
1124	0	32692	
1125	0	32636	
1126	0	32980	
1127	0	32944	
1128	0	32928	
1129	0	32908	
1130	0	32912	
1131	0	32876	
1132	0	32908	
1133	0	32824	
1134	0	32792	
1135	0	32804	
1136	0	33152	
1137	0	32788	
1138	0	32668	
1139	0	32668	
1140	0	32572	
1141	0	32660	
1142	0	32468	
1143	0	32588	
1144	0	32668	
1145	0	32653	
1146	0	33056	
1147	0	32996	
1148	0	32904	
1149	0	32808	
1150	0	32756	
1151	0	32780	
1152	0	32885	
1153	0	32816	
1154	0	32824	
1155	0	33013	
1156	0	32988	
1157	0	32698	
1158	0	32600	
1159	0	32557	
1160	0	32654	
1161	0	32736	
1162	0	32500	
1163	0	32708	
1164	0	32728	
1165	0	32656	
1166	0	33044	
1167	0	32956	
1168	0	32908	
1169	0	32854	
1170	0	32780	
1171	0	32768	
1172	0	32844	
1173	0	32848	
1174	0	32810	
1175	0	32804	
1176	0	32900	
1177	0	32704	
1178	0	32728	
1179	0	32764	
1180	0	32784	
1181	0	32534	
1182	0	32416	
1183	0	32532	
1184	0	32632	
1185	0	32644	
1186	0	33012	
1187	0	32960	
1188	0	32772	
1189	0	32884	
1190	0	32960	
1191	0	32876	
1192	0	33016	
1193	0	32836	
1194	0	32760	
1195	0	32944	
1196	0	32972	
1197	0	32788	
1198	0	32588	
1199	0	32480	
1200	0	32468	
1201	0	32532	
1202	0	32452	
1203	0	32704	
1204	0	32805	
1205	0	32828	
1206	0	33000	
1207	0	32885	
1208	0	32820	
1209	0	32900	
1210	0	32816	
1211	0	32886	
1212	0	32760	
1213	0	32814	
1214	0	32872	
1215	0	32896	
1216	0	33020	
1217	0	32840	
1218	0	32689	
1219	0	32632	
1220	0	32669	
1221	0	32748	
1222	0	32476	
1223	0	32616	
1224	0	32716	
1225	0	32656	
1226	0	33024	
1227	0	33020	
1228	0	32852	
1229	0	32746	
1230	0	32764	
1231	0	32668	
1232	0	32741	
1233	0	32828	
1234	0	32812	
1235	0	32965	
1236	0	32948	
1237	0	32713	
1238	0	32770	
1239	0	32886	
1240	0	32705	
1241	0	32528	
1242	0	32436	
1243	0	32590	
1244	0	32792	
1245	0	32772	
1246	0	32884	
1247	0	32932	
1248	0	32949	
1249	0	32900	
1250	0	32802	
1251	0	32728	
1252	0	32868	
1253	0	32900	
1254	0	32832	
1255	0	32952	
1256	0	32960	
1257	0	32691	
1258	0	32728	
1259	0	32672	
1260	0	32716	
1261	0	32560	
1262	0	32500	
1263	0	32544	
1264	0	32628	
1265	0	32868	
1266	0	32848	
1267	0	32876	
1268	0	32840	
1269	0	32816	
1270	0	32776	
1271	0	32788	
1272	0	32848	
1273	0	32900	
1274	0	32860	
1275	0	33001	
1276	0	32808	
1277	0	32714	
1278	0	32680	
1279	0	32612	
1280	0	32616	
1281	0	32616	
1282	0	32600	
1283	0	32713	
1284	0	32800	
1285	0	32892	
1286	0	32976	
1287	0	32932	
1288	0	32884	
1289	0	32796	
1290	0	32744	
1291	0	32724	
1292	0	32929	
1293	0	33077	
1294	0	32824	
1295	0	33060	
1296	0	32988	
1297	0	32693	
1298	0	32588	
1299	0	32564	
1300	0	32556	
1301	0	32645	
1302	0	32540	
1303	0	32680	
1304	0	32720	
1305	0	32908	
1306	0	33048	
1307	0	33036	
1308	0	32956	
1309	0	32933	
1310	0	32828	
1311	0	32672	
1312	0	32700	
1313	0	32840	
1314	0	32796	
1315	0	32885	
1316	0	32750	
1317	0	32608	
1318	0	32576	
1319	0	32584	
1320	0	32616	
1321	0	32568	
1322	0	32584	
1323	0	32704	
1324	0	32765	
1325	0	32916	
1326	0	33092	
1327	0	33016	
1328	0	33008	
1329	0	33080	
1330	0	32903	
1331	0	32708	
1332	0	32756	
1333	0	32800	
1334	0	32768	
1335	0	32948	
1336	0	32724	
1337	0	32644	
1338	0	32768	
1339	0	32540	
1340	0	32476	
1341	0	32408	
1342	0	32656	
1343	0	32808	
1344	0	32876	
1345	0	32928	
1346	0	32852	
1347	0	32725	
1348	0	32716	
1349	0	32852	
1350	0	32940	
1351	0	32900	
1352	0	32876	
1353	0	33006	
1354	0	33040	
1355	0	33008	
1356	0	32810	
1357	0	32736	
1358	0	32586	
1359	0	32568	
1360	0	32656	
1361	0	32644	
1362	0	32552	
1363	0	32652	
1364	0	32748	
1365	0	32784	
1366	0	32836	
1367	0	32892	
1368	0	32920	
1369	0	32868	
1370	0	32884	
1371	0	32968	
1372	0	32904	
1373	0	32840	
1374	0	32772	
1375	0	32792	
1376	0	32692	
1377	0	32624	
1378	0	32696	
1379	0	32648	
1380	0	32748	
1381	0	32521	
1382	0	32528	
1383	0	32700	
1384	0	32852	
1385	0	32864	
1386	0	32920	
1387	0	32872	
1388	0	32912	
1389	0	32852	
1390	0	32760	
1391	0	32836	
1392	0	32852	
1393	0	32856	
1394	0	32908	
1395	0	32988	
1396	0	32900	
1397	0	32924	
1398	0	32784	
1399	0	32621	
1400	0	32580	
1401	0	32320	
1402	0	32340	
1403	0	32696	
1404	0	32780	
1405	0	32840	
1406	0	32901	
1407	0	33036	
1408	0	32891	
1409	0	32888	
1410	0	32840	
1411	0	32736	
1412	0	32812	
1413	0	32884	
1414	0	32848	
1415	0	33048	
1416	0	32908	
1417	0	32760	
1418	0	32724	
1419	0	32800	
1420	0	32656	
1421	0	32332	
1422	0	32509	
1423	0	32686	
1424	0	32576	
1425	0	32684	
1426	0	32884	
1427	0	32980	
1428	0	32996	
1429	0	32968	
1430	0	32832	
1431	0	32792	
1432	0	32864	
1433	0	32933	
1434	0	32920	
1435	0	33032	
1436	0	32856	
1437	0	32721	
1438	0	32488	
1439	0	32500	
1440	0	32612	
1441	0	32444	
1442	0	32568	
1443	0	32728	
1444	0	32836	
1445	0	32840	
1446	0	33014	
1447	0	32932	
1448	0	32936	
1449	0	33056	
1450	0	33004	
1451	0	32916	
1452	0	32868	
1453	0	32740	
1454	0	32596	
1455	0	32758	
1456	0	32652	
1457	0	32628	
1458	0	32620	
1459	0	32756	
1460	0	32756	
1461	0	32544	
1462	0	32568	
1463	0	32636	
1464	0	32728	
1465	0	32952	
1466	0	32997	
1467	0	32912	
1468	0	32986	
1469	0	32656	
1470	0	32712	
1471	0	32864	
1472	0	32904	
1473	0	32720	
1474	0	32848	
1475	0	32932	
1476	0	32780	
1477	0	32712	
1478	0	32628	
1479	0	32648	
1480	0	32592	
1481	0	32520	
1482	0	32532	
1483	0	32737	
1484	0	32796	
1485	0	32868	
1486	0	32908	
1487	0	33070	
1488	0	33140	
1489	0	33004	
1490	0	32904	
1491	0	33012	
1492	0	32876	
1493	0	32660	
1494	0	32708	
1495	0	32788	
1496	0	32720	
1497	0	32960	
1498	0	32892	
1499	0	32705	
1500	0	32600	
1501	0	32390	
1502	0	32584	
1503	0	32680	
1504	0	32752	
1505	0	32908	
1506	0	32832	
1507	0	32800	
1508	0	32880	
1509	0	32880	
1510	0	32741	
1511	0	32805	
1512	0	32844	
1513	0	32836	
1514	0	32842	
1515	0	33022	
1516	0	32824	
1517	0	32756	
1518	0	32700	
1519	0	32676	
1520	0	32780	
1521	0	32492	
1522	0	32560	
1523	0	32592	
1524	0	32612	
1525	0	32840	
1526	0	32893	
1527	0	32876	
1528	0	32756	
1529	0	32781	
1530	0	32770	
1531	0	32916	
1532	0	32998	
1533	0	32910	
1534	0	32864	
1535	0	33024	
1536	0	32804	
1537	0	32608	
1538	0	32663	
1539	0	32630	
1540	0	32676	
1541	0	32508	
1542	0	32540	
1543	0	32596	
1544	0	32652	
1545	0	32828	
1546	0	32872	
1547	0	32904	
1548	0	32773	
1549	0	32776	
1550	0	32840	
1551	0	33040	
1552	0	33004	
1553	0	32926	
1554	0	32980	
1555	0	33036	
1556	0	32804	
1557	0	32660	
1558	0	32649	
1559	0	32636	
1560	0	32624	
1561	0	32328	
1562	0	32545	
1563	0	32716	
1564	0	32576	
1565	0	32748	
1566	0	33060	
1567	0	33052	
1568	0	32788	
1569	0	32816	
1570	0	32693	
1571	0	32764	
1572	0	32808	
1573	0	32700	
1574	0	32892	
1575	0	33012	
1576	0	32933	
1577	0	32892	
1578	0	32752	
1579	0	32648	
1580	0	32676	
1581	0	32484	
1582	0	32616	
1583	0	32689	
1584	0	32680	
1585	0	32756	
1586	0	32916	
1587	0	32816	
1588	0	32928	
1589	0	32904	
1590	0	32748	
1591	0	32924	
1592	0	32948	
1593	0	32849	
1594	0	32869	
1595	0	32940	
1596	0	32832	
1597	0	32692	
1598	0	32536	
1599	0	32568	
1600	0	32656	
1601	0	32444	
1602	0	32604	
1603	0	32680	
1604	0	32732	
1605	0	32832	
1606	0	32706	
1607	0	32805	
1608	0	32948	
1609	0	33028	
1610	0	32820	
1611	0	32868	
1612	0	32909	
1613	0	32988	
1614	0	32920	
1615	0	32804	
1616	0	32692	
1617	0	32636	
1618	0	32596	
1619	0	32680	
1620	0	32700	
1621	0	32480	
1622	0	32728	
1623	0	32812	
1624	0	32696	
1625	0	32868	
1626	0	32836	
1627	0	32856	
1628	0	32844	
1629	0	32748	
1630	0	32748	
1631	0	32796	
1632	0	32884	
1633	0	32932	
1634	0	33000	
1635	0	33110	
1636	0	32880	
1637	0	32852	
1638	0	32644	
1639	0	32512	
1640	0	32528	
1641	0	32320	
1642	0	32624	
1643	0	32828	
1644	0	32688	
1645	0	32960	
1646	0	32960	
1647	0	32912	
1648	0	32896	
1649	0	32760	
1650	0	32906	
1651	0	32828	
1652	0	32852	
1653	0	32740	
1654	0	32796	
1655	0	32860	
1656	0	32712	
1657	0	32737	
1658	0	32697	
1659	0	32677	
1660	0	32700	
1661	0	32420	
1662	0	32632	
1663	0	32725	
1664	0	32686	
1665	0	32856	
1666	0	32920	
1667	0	32952	
1668	0	32864	
1669	0	32896	
1670	0	32893	
1671	0	32801	
1672	0	32968	
1673	0	32960	
1674	0	32996	
1675	0	32812	
1676	0	32584	
1677	0	32708	
1678	0	32670	
1679	0	32680	
1680	0	32704	
1681	0	32476	
1682	0	32676	
1683	0	32824	
1684	0	32776	
1685	0	32816	
1686	0	32908	
1687	0	33032	
1688	0	32892	
1689	0	32648	
1690	0	32832	
1691	0	32876	
1692	0	32836	
1693	0	32832	
1694	0	32881	
1695	0	32934	
1696	0	32796	
1697	0	32784	
1698	0	32668	
1699	0	32672	
1700	0	32481	
1701	0	32424	
1702	0	32588	
1703	0	32716	
1704	0	32816	
1705	0	32940	
1706	0	33004	
1707	0	32892	
1708	0	32852	
1709	0	32792	
1710	0	32780	
1711	0	32925	
1712	0	32952	
1713	0	32836	
1714	0	33008	
1715	0	32824	
1716	0	32687	
1717	0	32736	
1718	0	32608	
1719	0	32700	
1720	0	32629	
1721	0	32556	
1722	0	32644	
1723	0	32828	
1724	0	32808	
1725	0	32856	
1726	0	33022	
1727	0	32928	
1728	0	32728	
1729	0	32628	
1730	0	32704	
1731	0	32764	
1732	0	32888	
1733	0	32716	
1734	0	32996	
1735	0	32900	
1736	0	32644	
1737	0	32744	
1738	0	32712	
1739	0	32617	
1740	0	32577	
1741	0	32572	
1742	0	32712	
1743	0	32792	
1744	0	32952	
1745	0	33044	
1746	0	32984	
1747	0	32764	
1748	0	32764	
1749	0	32764	
1750	0	32712	
1751	0	33052	
1752	0	33092	
1753	0	32960	
1754	0	32956	
1755	0	32804	
1756	0	32726	
1757	0	32646	
1758	0	32564	
1759	0	32644	
1760	0	32524	
1761	0	32356	
1762	0	32508	
1763	0	32732	
1764	0	32816	
1765	0	32940	
1766	0	32884	
1767	0	32886	
1768	0	32836	
1769	0	32840	
1770	0	32840	
1771	0	32921	
1772	0	32886	
1773	0	32816	
1774	0	33006	
1775	0	32888	
1776	0	32768	
1777	0	32600	
1778	0	32688	
1779	0	32678	
1780	0	32552	
1781	0	32560	
1782	0	32705	
1783	0	32772	
1784	0	32804	
1785	0	32856	
1786	0	32824	
1787	0	32908	
1788	0	32836	
1789	0	32780	
1790	0	32816	
1791	0	32828	
1792	0	32760	
1793	0	32920	
1794	0	33156	
1795	0	32828	
1796	0	32564	
1797	0	32608	
1798	0	32584	
1799	0	32680	
1800	0	32548	
1801	0	32477	
1802	0	32668	
1803	0	32856	
1804	0	32960	
1805	0	33016	
1806	0	32952	
1807	0	32964	
1808	0	32920	
1809	0	32758	
1810	0	32748	
1811	0	32694	
1812	0	32816	
1813	0	32792	
1814	0	32996	
1815	0	32812	
1816	0	32716	
1817	0	32702	
1818	0	32748	
1819	0	32932	
1820	0	32616	
1821	0	32528	
1822	0	32700	
1823	0	32676	
1824	0	32768	
1825	0	32852	
1826	0	32760	
1827	0	32684	
1828	0	32705	
1829	0	32888	
1830	0	32814	
1831	0	32880	
1832	0	32872	
1833	0	32880	
1834	0	32948	
1835	0	32884	
1836	0	32816	
1837	0	32801	
1838	0	32624	
1839	0	32604	
1840	0	32472	
1841	0	32588	
1842	0	32701	
1843	0	32840	
1844	0	33052	
1845	0	33044	
1846	0	32828	
1847	0	32752	
1848	0	32744	
1849	0	32848	
1850	0	32844	
1851	0	32984	
1852	0	32844	
1853	0	32879	
1854	0	32968	
1855	0	32704	
1856	0	32604	
1857	0	32688	
1858	0	32704	
1859	0	32726	
1860	0	32424	
1861	0	32548	
1862	0	32716	
1863	0	32792	
1864	0	32840	
1865	0	33108	
1866	0	32920	
1867	0	32924	
1868	0	32984	
1869	0	32868	
1870	0	32884	
1871	0	32800	
1872	0	32788	
1873	0	32844	
1874	0	32980	
1875	0	32816	
1876	0	32532	
1877	0	32520	
1878	0	32548	
1879	0	32476	
1880	0	32357	
1881	0	32636	
1882	0	32900	
1883	0	32904	
1884	0	32884	
1885	0	32960	
1886	0	32952	
1887	0	32905	
1888	0	32924	
1889	0	32880	
1890	0	32844	
1891	0	32824	
1892	0	32740	
1893	0	32704	
1894	0	32844	
1895	0	32708	
1896	0	32680	
1897	0	32636	
1898	0	32712	
1899	0	32860	
1900	0	32397	
1901	0	32580	
1902	0	32740	
1903	0	32677	
1904	0	32784	
1905	0	32952	
1906	0	32876	
1907	0	32940	
1908	0	33014	
1909	0	32896	
1910	0	32856	
1911	0	32892	
1912	0	32768	
1913	0	32820	
1914	0	32876	
1915	0	32732	
1916	0	32708	
1917	0	32640	
1918	0	32620	
1919	0	32632	
1920	0	32436	
1921	0	32652	
1922	0	32716	
1923	0	32621	
1924	0	32940	
1925	0	33101	
1926	0	33092	
1927	0	32984	
1928	0	32813	
1929	0	32784	
1930	0	32908	
1931	0	32972	
1932	0	32840	
1933	0	32756	
1934	0	32944	
1935	0	32652	
1936	0	32452	
1937	0	32461	
1938	0	32640	
1939	0	32704	
1940	0	32548	
1941	0	32817	
1942	0	33012	
1943	0	32740	
1944	0	32884	
1945	0	32828	
1946	0	32824	
1947	0	32896	
1948	0	32752	
1949	0	32742	
1950	0	32784	
1951	0	32981	
1952	0	33004	
1953	0	32902	
1954	0	32896	
1955	0	32748	
1956	0	32756	
1957	0	32661	
1958	0	32660	
1959	0	32660	
1960	0	32468	
1961	0	32668	
1962	0	32681	
1963	0	32688	
1964	0	32932	
1965	0	32922	
1966	0	32960	
1967	0	32920	
1968	0	32768	
1969	0	32638	
1970	0	32832	
1971	0	32848	
1972	0	32861	
1973	0	32796	
1974	0	32988	
1975	0	32840	
1976	0	32724	
1977	0	32600	
1978	0	32552	
1979	0	32760	
1980	0	32480	
1981	0	32608	
1982	0	32572	
1983	0	32640	
1984	0	32996	
1985	0	32916	
1986	0	32980	
1987	0	33016	
1988	0	32988	
1989	0	32872	
1990	0	32704	
1991	0	32740	
1992	0	32785	
1993	0	32944	
1994	0	32956	
1995	0	32808	
1996	0	32596	
1997	0	32590	
1998	0	32670	
1999	0	32678	
2000	0	32512	
2001	0	32540	
2002	0	32692	
2003	0	32676	
2004	0	33002	
2005	0	32996	
2006	0	32964	
2007	0	32804	
2008	0	32822	
2009	0	32920	
2010	0	32896	
2011	0	32726	
2012	0	32828	
2013	0	32687	
2014	0	32648	
2015	0	32708	
2016	0	32800	
2017	0	32804	
2018	0	32752	
2019	0	32652	
2020	0	32480	
2021	0	32680	
2022	0	32830	
2023	0	32808	
2024	0	32928	
2025	0	33036	
2026	0	32892	
2027	0	32700	
2028	0	32724	
2029	0	32824	
2030	0	32829	
2031	0	32828	
2032	0	32884	
2033	0	32964	
2034	0	32948	
2035	0	32824	
2036	0	32764	
2037	0	32532	
2038	0	32556	
2039	0	32706	
2040	0	32644	
2041	0	32828	
2042	0	32784	
2043	0	32592	
2044	0	32837	
2045	0	32860	
2046	0	32856	
2047	0	32828	
2048	0	32960	
2049	0	32724	
2050	0	32712	
2051	0	32796	
2052	0	32800	
2053	0	32908	
2054	0	32890	
2055	0	32862	
2056	0	32796	
2057	0	32732	
2058	0	32672	
2059	0	32608	
2060	0	32424	
2061	0	32620	
2062	0	32732	
2063	0	32720	
2064	0	32940	
2065	0	32952	
2066	0	32984	
2067	0	32868	
2068	0	32964	
2069	0	32925	
2070	0	32948	
2071	0	32884	
2072	0	32724	
2073	0	32920	
2074	0	32760	
2075	0	32694	
2076	0	32672	
2077	0	32616	
2078	0	32668	
2079	0	32584	
2080	0	32500	
2081	0	32616	
2082	0	32660	
2083	0	32668	
2084	0	32944	
2085	0	32932	
2086	0	32917	
2087	0	32832	
2088	0	32865	
2089	0	32800	
2090	0	32916	
2091	0	32932	
2092	0	32894	
2093	0	32988	
2094	0	32912	
2095	0	32770	
2096	0	32749	
2097	0	32768	
2098	0	32900	
2099	0	32708	
2100	0	32288	
2101	0	32460	
2102	0	32680	
2103	0	32704	
2104	0	32982	
2105	0	32878	
2106	0	32848	
2107	0	32780	
2108	0	32712	
2109	0	32812	
2110	0	32834	
2111	0	32879	
2112	0	32953	
2113	0	33049	
2114	0	32900	
2115	0	32724	
2116	0	32684	
2117	0	32630	
2118	0	32676	
2119	0	32732	
2120	0	32484	
2121	0	32572	
2122	0	32716	
2123	0	32712	
2124	0	32996	
2125	0	33136	
2126	0	32993	
2127	0	32984	
2128	0	32900	
2129	0	32808	
2130	0	32644	
2131	0	32776	
2132	0	32676	
2133	0	32909	
2134	0	32832	
2135	0	32760	
2136	0	32664	
2137	0	32624	
2138	0	32784	
2139	0	32604	
2140	0	32357	
2141	0	32676	
2142	0	32780	
2143	0	32844	
2144	0	32965	
2145	0	32932	
2146	0	32920	
2147	0	32724	
2148	0	32704	
2149	0	32885	
2150	0	32888	
2151	0	32820	
2152	0	32880	
2153	0	32948	
2154	0	32804	
2155	0	32688	
2156	0	32636	
2157	0	32636	
2158	0	32676	
2159	0	32616	
2160	0	32500	
2161	0	32736	
2162	0	32716	
2163	0	32828	
2164	0	32960	
2165	0	32940	
2166	0	32992	
2167	0	32936	
2168	0	32924	
2169	0	32812	
2170	0	32892	
2171	0	32968	
2172	0	33012	
2173	0	33072	
2174	0	32872	
2175	0	32632	
2176	0	32568	
2177	0	32528	
2178	0	32716	
2179	0	32545	
2180	0	32520	
2181	0	32668	
2182	0	32708	
2183	0	32900	
2184	0	32961	
2185	0	32860	
2186	0	32768	
2187	0	32784	
2188	0	32900	
2189	0	32890	
2190	0	32852	
2191	0	32788	
2192	0	32748	
2193	0	32890	
2194	0	32840	
2195	0	32676	
2196	0	32696	
2197	0	32606	
2198	0	32656	
2199	0	32484	
2200	0	32605	
2201	0	32709	
2202	0	32750	
2203	0	32800	
2204	0	32912	
2205	0	32868	
2206	0	32860	
2207	0	32904	
2208	0	32852	
2209	0	32869	
2210	0	32884	
2211	0	32860	
2212	0	32864	
2213	0	32924	
2214	0	32788	
2215	0	32688	
2216	0	32788	
2217	0	32708	
2218	0	32672	
2219	0	32488	
2220	0	32540	
2221	0	32624	
2222	0	32732	
2223	0	32932	
2224	0	32932	
2225	0	32856	
2226	0	32936	
2227	0	32956	
2228	0	32868	
2229	0	32789	
2230	0	32740	
2231	0	32724	
2232	0	32680	
2233	0	32840	
2234	0	32760	
2235	0	32736	
2236	0	32760	
2237	0	32804	
2238	0	32729	
2239	0	32476	
2240	0	32552	
2241	0	32628	
2242	0	32748	
2243	0	32932	
2244	0	33046	
2245	0	32884	
2246	0	32960	
2247	0	32948	
2248	0	33030	
2249	0	32876	
2250	0	32660	
2251	0	32812	
2252	0	32704	
2253	0	32720	
2254	0	32725	
2255	0	32682	
2256	0	32689	
2257	0	32676	
2258	0	32672	
2259	0	32472	
2260	0	32576	
2261	0	32840	
2262	0	32752	
2263	0	32792	
2264	0	32849	
2265	0	32976	
2266	0	32908	
2267	0	32708	
2268	0	32716	
2269	0	32864	
2270	0	32832	
2271	0	32800	
2272	0	32868	
2273	0	32948	
2274	0	32784	
2275	0	32792	
2276	0	32672	
2277	0	32645	
2278	0	32644	
2279	0	32500	
2280	0	32656	
2281	0	32768	
2282	0	32692	
2283	0	32824	
2284	0	32916	
2285	0	32960	
2286	0	32972	
2287	0	33040	
2288	0	32872	
2289	0	32788	
2290	0	32764	
2291	0	32736	
2292	0	32748	
2293	0	32908	
2294	0	32782	
2295	0	32684	
2296	0	32764	
2297	0	32681	
2298	0	32604	
2299	0	32408	
2300	0	32436	
2301	0	32764	
2302	0	32808	
2303	0	32868	
2304	0	32860	
2305	0	32916	
2306	0	32932	
2307	0	32892	
2308	0	32880	
2309	0	32882	
2310	0	32884	
2311	0	32856	
2312	0	32792	
2313	0	32944	
2314	0	32772	
2315	0	32636	
2316	0	32620	
2317	0	32732	
2318	0	32696	
2319	0	32492	
2320	0	32584	
2321	0	32616	
2322	0	32620	
2323	0	32868	
2324	0	32940	
2325	0	32894	
2326	0	32900	
2327	0	32772	
2328	0	32600	
2329	0	32780	
2330	0	32960	
2331	0	32932	
2332	0	32868	
2333	0	33100	
2334	0	33064	
2335	0	32660	
2336	0	32564	
2337	0	32508	
2338	0	32636	
2339	0	32540	
2340	0	32673	
2341	0	32716	
2342	0	32668	
2343	0	32928	
2344	0	32910	
2345	0	32948	
2346	0	32864	
2347	0	32852	
2348	0	32800	
2349	0	32760	
2350	0	32857	
2351	0	32868	
2352	0	32820	
2353	0	32984	
2354	0	32816	
2355	0	32684	
2356	0	32592	
2357	0	32592	
2358	0	32616	
2359	0	32416	
2360	0	32578	
2361	0	32720	
2362	0	32792	
2363	0	32828	
2364	0	32879	
2365	0	32956	
2366	0	32968	
2367	0	33216	
2368	0	32972	
2369	0	32776	
2370	0	32896	
2371	0	32768	
2372	0	32828	
2373	0	33122	
2374	0	32781	
2375	0	32501	
2376	0	32448	
2377	0	32437	
2378	0	32476	
2379	0	32324	
2380	0	32540	
2381	0	32748	
2382	0	32750	
2383	0	33040	
2384	0	33096	
2385	0	33016	
2386	0	32920	
2387	0	32936	
2388	0	32788	
2389	0	32780	
2390	0	32765	
2391	0	32800	
2392	0	32836	
2393	0	32816	
2394	0	32728	
2395	0	32724	
2396	0	32712	
2397	0	32700	
2398	0	32664	
2399	0	32398	
2400	0	32604	
2401	0	32744	
2402	0	32756	
2403	0	32912	
2404	0	32896	
2405	0	32932	
2406	0	32984	
2407	0	32925	
2408	0	32848	
2409	0	32846	
2410	0	32864	
2411	0	32778	
2412	0	32805	
2413	0	32916	
2414	0	32700	
2415	0	32696	
2416	0	32536	
2417	0	32525	
2418	0	32592	
2419	0	32416	
2420	0	32688	
2421	0	32832	
2422	0	32768	
2423	0	32988	
2424	0	33086	
2425	0	32968	
2426	0	32900	
2427	0	32836	
2428	0	32708	
2429	0	32748	
2430	0	32836	
2431	0	32892	
2432	0	32881	
2433	0	32940	
2434	0	32784	
2435	0	32733	
2436	0	32752	
2437	0	32760	
2438	0	32572	
2439	0	32308	
2440	0	32564	
2441	0	32716	
2442	0	32750	
2443	0	32988	
2444	0	32876	
2445	0	32820	
2446	0	32742	
2447	0	32789	
2448	0	32793	
2449	0	32868	
2450	0	32865	
2451	0	32852	
2452	0	32952	
2453	0	32917	
2454	0	32812	
2455	0	32716	
2456	0	32720	
2457	0	32724	
2458	0	32716	
2459	0	32540	
2460	0	32624	
2461	0	32700	
2462	0	32644	
2463	0	32837	
2464	0	32852	
2465	0	32920	
2466	0	32920	
2467	0	32788	
2468	0	32840	
2469	0	32849	
2470	0	32933	
2471	0	32812	
2472	0	32872	
2473	0	32920	
2474	0	32732	
2475	0	32652	
2476	0	32669	
2477	0	32632	
2478	0	32640	
2479	0	32504	
2480	0	32632	
2481	0	32688	
2482	0	32756	
2483	0	33108	
2484	0	33268	
2485	0	32912	
2486	0	32828	
2487	0	32868	
2488	0	32893	
2489	0	32792	
2490	0	32792	
2491	0	32900	
2492	0	33024	
2493	0	33000	
2494	0	32604	
2495	0	32588	
2496	0	32448	
2497	0	32364	
2498	0	32452	
2499	0	32476	
2500	0	32796	
2501	0	32813	
2502	0	32700	
2503	0	33000	
2504	0	32976	
2505	0	32936	
2506	0	32824	
2507	0	32760	
2508	0	32870	
2509	0	32800	
2510	0	32888	
2511	0	32780	
2512	0	32936	
2513	0	32870	
2514	0	32684	
2515	0	32844	
2516	0	32644	
2517	0	32608	
2518	0	32568	
2519	0	32605	
2520	0	32752	
2521	0	32736	
2522	0	32696	
2523	0	32936	
2524	0	32804	
2525	0	32884	
2526	0	32836	
2527	0	32886	
2528	0	32944	
2529	0	33016	
2530	0	32910	
2531	0	32741	
2532	0	32860	
2533	0	32900	
2534	0	32709	
2535	0	32630	
2536	0	32586	
2537	0	32540	
2538	0	32508	
2539	0	32592	
2540	0	32928	
2541	0	33000	
2542	0	32797	
2543	0	32865	
2544	0	32856	
2545	0	32789	
2546	0	32720	
2547	0	32964	
2548	0	32976	
2549	0	32868	
2550	0	32880	
2551	0	32784	
2552	0	32948	
2553	0	32900	
2554	0	32708	
2555	0	32636	
2556	0	32704	
2557	0	32712	
2558	0	32692	
2559	0	32520	
2560	0	32720	
2561	0	32722	
2562	0	32764	
2563	0	32924	
2564	0	32892	
2565	0	32802	
2566	0	32912	
2567	0	32760	
2568	0	32888	
2569	0	32876	
2570	0	32784	
2571	0	32838	
2572	0	33136	
2573	0	32876	
2574	0	32767	
2575	0	32700	
2576	0	32517	
2577	0	32568	
2578	0	32496	
2579	0	32470	
2580	0	32660	
2581	0	32748	
2582	0	32984	
2583	0	32910	
2584	0	32812	
2585	0	32816	
2586	0	32872	
2587	0	32896	
2588	0	32852	
2589	0	32748	
2590	0	32880	
2591	0	32980	
2592	0	33052	
2593	0	32868	
2594	0	32790	
2595	0	32623	
2596	0	32558	
2597	0	32554	
2598	0	32524	
2599	0	32536	
2600	0	32744	
2601	0	32804	
2602	0	32857	
2603	0	32936	
2604	0	32876	
2605	0	32904	
2606	0	32816	
2607	0	32772	
2608	0	32820	
2609	0	32892	
2610	0	32892	
2611	0	32844	
2612	0	32868	
2613	0	32840	
2614	0	32861	
2615	0	32792	
2616	0	32636	
2617	0	32596	
2618	0	32480	
2619	0	32468	
2620	0	32648	
2621	0	32708	
2622	0	32820	
2623	0	32897	
2624	0	32948	
2625	0	32996	
2626	0	32904	
2627	0	32820	
2628	0	32876	
2629	0	32832	
2630	0	32928	
2631	0	32800	
2632	0	33055	
2633	0	32848	
2634	0	32708	
2635	0	32676	
2636	0	32640	
2637	0	32620	
2638	0	32557	
2639	0	32570	
2640	0	32656	
2641	0	32708	
2642	0	32832	
2643	0	33096	
2644	0	32996	
2645	0	32872	
2646	0	32712	
2647	0	32837	
2648	0	32836	
2649	0	32868	
2650	0	32903	
2651	0	32904	
2652	0	32960	
2653	0	32748	
2654	0	32704	
2655	0	32560	
2656	0	32544	
2657	0	32624	
2658	0	32476	
2659	0	32608	
2660	0	32736	
2661	0	32824	
2662	0	32846	
2663	0	32888	
2664	0	32844	
2665	0	32880	
2666	0	32868	
2667	0	32879	
2668	0	32808	
2669	0	32832	
2670	0	32816	
2671	0	32820	
2672	0	32960	
2673	0	32848	
2674	0	32756	
2675	0	32640	
2676	0	32700	
2677	0	32678	
2678	0	32484	
2679	0	32600	
2680	0	32632	
2681	0	32764	
2682	0	32868	
2683	0	32969	
2684	0	33044	
2685	0	32996	
2686	0	32926	
2687	0	32800	
2688	0	32808	
2689	0	32870	
2690	0	32868	
2691	0	32716	
2692	0	32824	
2693	0	32796	
2694	0	32581	
2695	0	32612	
2696	0	32620	
2697	0	32864	
2698	0	32632	
2699	0	32748	
2700	0	32528	
2701	0	32548	
2702	0	32796	
2703	0	32908	
2704	0	32784	
2705	0	32764	
2706	0	32868	
2707	0	32856	
2708	0	32944	
2709	0	32908	
2710	0	32856	
2711	0	32896	
2712	0	32932	
2713	0	32812	
2714	0	32672	
2715	0	32612	
2716	0	32636	
2717	0	32609	
2718	0	32428	
2719	0	32560	
2720	0	32796	
2721	0	32700	
2722	0	32972	
2723	0	32920	
2724	0	32984	
2725	0	32920	
2726	0	32829	
2727	0	32772	
2728	0	32816	
2729	0	32901	
2730	0	32924	
2731	0	32932	
2732	0	32964	
2733	0	32736	
2734	0	32705	
2735	0	32716	
2736	0	32660	
2737	0	32640	
2738	0	32388	
2739	0	32616	
2740	0	32720	
2741	0	32628	
2742	0	32860	
2743	0	32976	
2744	0	32940	
2745	0	32872	
2746	0	32726	
2747	0	32840	
2748	0	32856	
2749	0	32828	
2750	0	32832	
2751	0	32816	
2752	0	32972	
2753	0	32860	
2754	0	32776	
2755	0	32584	
2756	0	32596	
2757	0	32640	
2758	0	32698	
2759	0	32592	
2760	0	32592	
2761	0	32608	
2762	0	32756	
2763	0	32908	
2764	0	32904	
2765	0	32984	
2766	0	33076	
2767	0	32901	
2768	0	32736	
2769	0	32860	
2770	0	32776	
2771	0	32742	
2772	0	32876	
2773	0	32684	
2774	0	32652	
2775	0	32696	
2776	0	32756	
2777	0	32704	
2778	0	32336	
2779	0	32548	
2780	0	32756	
2781	0	32741	
2782	0	32861	
2783	0	33144	
2784	0	32880	
2785	0	32778	
2786	0	32728	
2787	0	32764	
2788	0	32780	
2789	0	32968	
2790	0	32904	
2791	0	32868	
2792	0	32888	
2793	0	32741	
2794	0	32644	
2795	0	32652	
2796	0	32709	
2797	0	32654	
2798	0	32444	
2799	0	32460	
2800	0	32577	
2801	0	32760	
2802	0	33028	
2803	0	32956	
2804	0	32868	
2805	0	32830	
2806	0	32884	
2807	0	32816	
2808	0	32932	
2809	0	32836	
2810	0	32832	
2811	0	32832	
2812	0	33008	
2813	0	32925	
2814	0	32808	
2815	0	32636	
2816	0	32524	
2817	0	32477	
2818	0	32384	
2819	0	32580	
2820	0	32688	
2821	0	32788	
2822	0	33072	
2823	0	32960	
2824	0	32777	
2825	0	32892	
2826	0	33040	
2827	0	32988	
2828	0	32872	
2829	0	33000	
2830	0	32932	
2831	0	32812	
2832	0	33045	
2833	0	32821	
2834	0	32668	
2835	0	32784	
2836	0	32768	
2837	0	32576	
2838	0	32358	
2839	0	32513	
2840	0	32656	
2841	0	32560	
2842	0	32776	
2843	0	32924	
2844	0	32873	
2845	0	32796	
2846	0	32808	
2847	0	32905	
2848	0	32864	
2849	0	32820	
2850	0	32880	
2851	0	32888	
2852	0	32988	
2853	0	32692	
2854	0	32732	
2855	0	32744	
2856	0	32772	
2857	0	32780	
2858	0	32488	
2859	0	32544	
2860	0	32696	
2861	0	32624	
2862	0	33048	
2863	0	33061	
2864	0	32826	
2865	0	32682	
2866	0	32448	
2867	0	32652	
2868	0	32812	
2869	0	32976	
2870	0	32784	
2871	0	33012	
2872	0	33040	
2873	0	32824	
2874	0	32822	
2875	0	32644	
2876	0	32604	
2877	0	32532	
2878	0	32460	
2879	0	32708	
2880	0	32840	
2881	0	32764	
2882	0	32869	
2883	0	32924	
2884	0	32912	
2885	0	32856	
2886	0	32788	
2887	0	32748	
2888	0	32720	
2889	0	32836	
2890	0	32880	
2891	0	32976	
2892	0	33024	
2893	0	32778	
2894	0	32812	
2895	0	32708	
2896	0	32652	
2897	0	32624	
2898	0	32512	
2899	0	32532	
2900	0	32636	
2901	0	32868	
2902	0	32916	
2903	0	32909	
2904	0	33037	
2905	0	32822	
2906	0	32828	
2907	0	32856	
2908	0	32728	
2909	0	32856	
2910	0	32720	
2911	0	32864	
2912	0	32944	
2913	0	32716	
2914	0	32720	
2915	0	32580	
2916	0	32660	
2917	0	32632	
2918	0	32492	
2919	0	32996	
2920	0	32712	
2921	0	32588	
2922	0	32778	
2923	0	32820	
2924	0	32828	
2925	0	32836	
2926	0	32844	
2927	0	32886	
2928	0	32888	
2929	0	32908	
2930	0	32772	
2931	0	33008	
2932	0	32908	
2933	0	32712	
2934	0	32648	
2935	0	32648	
2936	0	32672	
2937	0	32624	
2938	0	32492	
2939	0	32672	
2940	0	32684	
2941	0	32724	
2942	0	32872	
2943	0	32908	
2944	0	32940	
2945	0	32984	
2946	0	32980	
2947	0	32860	
2948	0	32780	
2949	0	32868	
2950	0	32836	
2951	0	32972	
2952	0	32972	
2953	0	32652	
2954	0	32728	
2955	0	32540	
2956	0	32552	
2957	0	32448	
2958	0	32516	
2959	0	32679	
2960	0	32716	
2961	0	32712	
2962	0	32861	
2963	0	32972	
2964	0	32908	
2965	0	32818	
2966	0	32804	
2967	0	32948	
2968	0	32872	
2969	0	32864	
2970	0	32944	
2971	0	33088	
2972	0	33000	
2973	0	32828	
2974	0	32600	
2975	0	32472	
2976	0	32752	
2977	0	32632	
2978	0	32468	
2979	0	32525	
2980	0	32741	
2981	0	32760	
2982	0	32944	
2983	0	32984	
2984	0	32888	
2985	0	32790	
2986	0	32564	
2987	0	32656	
2988	0	32782	
2989	0	32884	
2990	0	32844	
2991	0	33004	
2992	0	32924	
2993	0	32760	
2994	0	32616	
2995	0	32628	
2996	0	32696	
2997	0	32688	
2998	0	32660	
2999	0	32698	
3000	0	32670	
3001	0	32760	
3002	0	32996	
3003	0	32892	
3004	0	32990	
3005	0	32836	
3006	0	32732	
3007	0	32778	
3008	0	32884	
3009	0	32884	
3010	0	32872	
3011	0	33076	
3012	0	32920	
3013	0	32764	
3014	0	32736	
3015	0	32600	
3016	0	32596	
3017	0	32544	
3018	0	32505	
3019	0	32720	
3020	0	32756	
3021	0	32812	
3022	0	32996	
3023	0	33012	
3024	0	32952	
3025	0	32840	
3026	0	32792	
3027	0	32613	
3028	0	32604	
3029	0	32868	
3030	0	32940	
3031	0	32976	
3032	0	32832	
3033	0	32732	
3034	0	32708	
3035	0	32668	
3036	0	32836	
3037	0	32624	
3038	0	32432	
3039	0	32644	
3040	0	32740	
3041	0	32860	
3042	0	32846	
3043	0	32869	
3044	0	32804	
3045	0	32804	
3046	0	32884	
3047	0	32921	
3048	0	32996	
3049	0	32917	
3050	0	32844	
3051	0	33140	
3052	0	32846	
3053	0	32576	
3054	0	32636	
3055	0	32688	
3056	0	32576	
3057	0	32476	
3058	0	32552	
3059	0	32668	
3060	0	32684	
3061	0	32836	
3062	0	33016	
3063	0	33056	
3064	0	32992	
3065	0	32916	
3066	0	32928	
3067	0	32752	
3068	0	32761	
3069	0	32852	
3070	0	32772	
3071	0	32932	
3072	0	32704	
3073	0	32668	
3074	0	32704	
3075	0	32740	
3076	0	32736	
3077	0	32532	
3078	0	32520	
3079	0	32672	
3080	0	32692	
3081	0	32700	
3082	0	32916	
3083	0	32972	
3084	0	33052	
3085	0	32956	
3086	0	32864	
3087	0	32820	
3088	0	32804	
3089	0	32836	
3090	0	32788	
3091	0	33000	
3092	0	32716	
3093	0	32632	
3094	0	32628	
3095	0	32716	
3096	0	32656	
3097	0	32448	
3098	0	32492	
3099	0	32772	
3100	0	32716	
3101	0	32768	
3102	0	32964	
3103	0	32992	
3104	0	32868	
3105	0	32948	
3106	0	32856	
3107	0	32900	
3108	0	32756	
3109	0	32852	
3110	0	32806	
3111	0	32972	
3112	0	32744	
3113	0	32601	
3114	0	32736	
3115	0	32740	
3116	0	32844	
3117	0	32580	
3118	0	32480	
3119	0	32620	
3120	0	32824	
3121	0	32952	
3122	0	33017	
3123	0	32904	
3124	0	32804	
3125	0	32700	
3126	0	32704	
3127	0	32756	
3128	0	32860	
3129	0	32848	
3130	0	32808	
3131	0	33056	
3132	0	32856	
3133	0	32980	
3134	0	32662	
3135	0	32501	
3136	0	32568	
3137	0	32420	
3138	0	32576	
3139	0	32648	
3140	0	32644	
3141	0	32968	
3142	0	32941	
3143	0	32964	
3144	0	32776	
3145	0	32797	
3146	0	32796	
3147	0	32784	
3148	0	32873	
3149	0	32983	
3150	0	32812	
3151	0	32932	
3152	0	32792	
3153	0	32728	
3154	0	32740	
3155	0	32632	
3156	0	32596	
3157	0	32452	
3158	0	32628	
3159	0	32828	
3160	0	32612	
3161	0	32772	
3162	0	32844	
3163	0	33013	
3164	0	32996	
3165	0	32916	
3166	0	32896	
3167	0	32796	
3168	0	32740	
3169	0	32772	
3170	0	32645	
3171	0	32892	
3172	0	32796	
3173	0	32780	
3174	0	32724	
3175	0	32688	
3176	0	32745	
3177	0	32552	
3178	0	32564	
3179	0	32644	
3180	0	32637	
3181	0	32836	
3182	0	32848	
3183	0	32932	
3184	0	33060	
3185	0	32952	
3186	0	32860	
3187	0	32888	
3188	0	32996	
3189	0	32676	
3190	0	32760	
3191	0	32980	
3192	0	32784	
3193	0	32736	
3194	0	32504	
3195	0	32536	
3196	0	32628	
3197	0	32422	
3198	0	32532	
3199	0	32741	
3200	0	32668	
3201	0	32848	
3202	0	32896	
3203	0	32948	
3204	0	32988	
3205	0	32956	
3206	0	32912	
3207	0	32844	
3208	0	32948	
3209	0	32826	
3210	0	32812	
3211	0	33020	
3212	0	32936	
3213	0	32740	
3214	0	32545	
3215	0	32613	
3216	0	32672	
3217	0	32548	
3218	0	32512	
3219	0	32644	
3220	0	32540	
3221	0	32944	
3222	0	32960	
3223	0	32853	
3224	0	32708	
3225	0	32669	
3226	0	32884	
3227	0	32860	
3228	0	32844	
3229	0	32876	
3230	0	32896	
3231	0	33020	
3232	0	32784	
3233	0	32708	
3234	0	32640	
3235	0	32556	
3236	0	32608	
3237	0	32448	
3238	0	32636	
3239	0	32820	
3240	0	32712	
3241	0	32780	
3242	0	32892	
3243	0	32876	
3244	0	32965	
3245	0	32884	
3246	0	32804	
3247	0	32837	
3248	0	33013	
3249	0	32884	
3250	0	32889	
3251	0	32792	
3252	0	32704	
3253	0	32624	
3254	0	32644	
3255	0	32688	
3256	0	32604	
3257	0	32508	
3258	0	32669	
3259	0	32784	
3260	0	32756	
3261	0	32940	
3262	0	32908	
3263	0	32824	
3264	0	32916	
3265	0	32888	
3266	0	32800	
3267	0	32768	
3268	0	32920	
3269	0	32918	
3270	0	32868	
3271	0	32808	
3272	0	32800	
3273	0	32744	
3274	0	32688	
3275	0	32684	
3276	0	32692	
3277	0	32452	
3278	0	32577	
3279	0	32713	
3280	0	32660	
3281	0	32932	
3282	0	32954	
3283	0	32833	
3284	0	32784	
3285	0	32766	
3286	0	32800	
3287	0	32820	
3288	0	32880	
3289	0	32989	
3290	0	33100	
3291	0	32992	
3292	0	32728	
3293	0	32720	
3294	0	32620	
3295	0	32608	
3296	0	32548	
3297	0	32432	
3298	0	32544	
3299	0	32648	
3300	0	32704	
3301	0	32960	
3302	0	32862	
3303	0	32936	
3304	0	32804	
3305	0	32644	
3306	0	32781	
3307	0	32740	
3308	0	32920	
3309	0	33036	
3310	0	33040	
3311	0	33060	
3312	0	32840	
3313	0	32746	
3314	0	32592	
3315	0	32624	
3316	0	32776	
3317	0	32556	
3318	0	32720	
3319	0	32680	
3320	0	32452	
3321	0	32684	
3322	0	32856	
3323	0	32826	
3324	0	32984	
3325	0	32928	
3326	0	32872	
3327	0	32764	
3328	0	32868	
3329	0	32769	
3330	0	32968	
3331	0	32984	
3332	0	32776	
3333	0	32628	
3334	0	32568	
3335	0	32624	
3336	0	32600	
3337	0	32396	
3338	0	32676	
3339	0	32825	
3340	0	32692	
3341	0	32928	
3342	0	32936	
3343	0	32933	
3344	0	32928	
3345	0	32868	
3346	0	32868	
3347	0	32896	
3348	0	32868	
3349	0	32828	
3350	0	32928	
3351	0	33000	
3352	0	32904	
3353	0	32676	
3354	0	32669	
3355	0	32544	
3356	0	32552	
3357	0	32388	
3358	0	32568	
3359	0	32712	
3360	0	32812	
3361	0	32960	
3362	0	32880	
3363	0	32785	
3364	0	32800	
3365	0	32766	
3366	0	32749	
3367	0	32864	
3368	0	33060	
3369	0	32940	
3370	0	32992	
3371	0	32885	
3372	0	32616	
3373	0	32594	
3374	0	32592	
3375	0	32645	
3376	0	32772	
3377	0	32596	
3378	0	32696	
3379	0	32684	
3380	0	32653	
3381	0	32900	
3382	0	32886	
3383	0	32936	
3384	0	32856	
3385	0	32957	
3386	0	32920	
3387	0	32856	
3388	0	32872	
3389	0	32800	
3390	0	32968	
3391	0	32804	
3392	0	32582	
3393	0	32744	
3394	0	32856	
3395	0	32879	
3396	0	32612	
3397	0	32572	
3398	0	32540	
3399	0	32661	
3400	0	32686	
3401	0	32974	
3402	0	33104	
3403	0	32916	
3404	0	32612	
3405	0	32580	
3406	0	32576	
3407	0	32744	
3408	0	32884	
3409	0	32948	
3410	0	33124	
3411	0	32980	
3412	0	32724	
3413	0	32716	
3414	0	32696	
3415	0	32832	
3416	0	32761	
3417	0	32564	
3418	0	32620	
3419	0	32740	
3420	0	32804	
3421	0	32836	
3422	0	32760	
3423	0	32872	
3424	0	32772	
3425	0	32832	
3426	0	32820	
3427	0	32892	
3428	0	32880	
3429	0	32788	
3430	0	33036	
3431	0	32924	
3432	0	32828	
3433	0	32708	
3434	0	32576	
3435	0	32468	
3436	0	32536	
3437	0	32442	
3438	0	32536	
3439	0	32801	
3440	0	32876	
3441	0	32992	
3442	0	33016	
3443	0	32848	
3444	0	32908	
3445	0	32796	
3446	0	32776	
3447	0	32812	
3448	0	32845	
3449	0	32685	
3450	0	33032	
3451	0	32976	
3452	0	32678	
3453	0	32695	
3454	0	32680	
3455	0	32608	
3456	0	32520	
3457	0	32448	
3458	0	32588	
3459	0	32700	
3460	0	32824	
3461	0	32996	
3462	0	33040	
3463	0	32989	
3464	0	32888	
3465	0	32968	
3466	0	32908	
3467	0	32900	
3468	0	32876	
3469	0	32792	
3470	0	32832	
3471	0	32908	
3472	0	32836	
3473	0	32712	
3474	0	32688	
3475	0	32670	
3476	0	32612	
3477	0	32722	
3478	0	32788	
3479	0	32816	
3480	0	32744	
3481	0	32888	
3482	0	32836	
3483	0	32770	
3484	0	32741	
3485	0	32684	
3486	0	32836	
3487	0	32849	
3488	0	32844	
3489	0	32744	
3490	0	32904	
3491	0	32836	
3492	0	32776	
3493	0	32736	
3494	0	32640	
3495	0	32676	
3496	0	32456	
3497	0	32484	
3498	0	32640	
3499	0	32784	
3500	0	32900	
3501	0	33008	
3502	0	32908	
3503	0	32861	
3504	0	32812	
3505	0	32816	
3506	0	32924	
3507	0	33084	
3508	0	32928	
3509	0	32748	
3510	0	32896	
3511	0	32864	
3512	0	32744	
3513	0	32696	
3514	0	32596	
3515	0	32672	
3516	0	32624	
3517	0	32464	
3518	0	32592	
3519	0	32632	
3520	0	32712	
3521	0	32928	
3522	0	33061	
3523	0	32932	
3524	0	32900	
3525	0	32832	
3526	0	32728	
3527	0	32716	
3528	0	32848	
3529	0	32882	
3530	0	33025	
3531	0	32972	
3532	0	32712	
3533	0	32612	
3534	0	32620	
3535	0	32608	
3536	0	32424	
3537	0	32436	
3538	0	32656	
3539	0	32768	
3540	0	32872	
3541	0	32836	
3542	0	33020	
3543	0	33016	
3544	0	32976	
3545	0	32924	
3546	0	32904	
3547	0	32864	
3548	0	32832	
3549	0	32800	
3550	0	32936	
3551	0	32792	
3552	0	32644	
3553	0	32700	
3554	0	32672	
3555	0	32636	
3556	0	32532	
3557	0	32512	
3558	0	32792	
3559	0	32820	
3560	0	32780	
3561	0	32820	
3562	0	32876	
3563	0	32892	
3564	0	32937	
3565	0	32805	
3566	0	32848	
3567	0	32868	
3568	0	32877	
3569	0	32884	
3570	0	33036	
3571	0	32892	
3572	0	32764	
3573	0	32584	
3574	0	32592	
3575	0	32568	
3576	0	32389	
3577	0	32740	
3578	0	32748	
3579	0	32716	
3580	0	32808	
3581	0	32636	
3582	0	32780	
3583	0	32980	
3584	0	32968	
3585	0	32912	
3586	0	32984	
3587	0	32984	
3588	0	32924	
3589	0	32740	
3590	0	33004	
3591	0	32772	
3592	0	32740	
3593	0	32700	
3594	0	32620	
3595	0	32728	
3596	0	32536	
3597	0	32512	
3598	0	32600	
3599	0	32613	
3600	0	32668	
3601	0	32750	
3602	0	32812	
3603	0	32968	
3604	0	32964	
3605	0	32852	
3606	0	32928	
3607	0	32956	
3608	0	32965	
3609	0	32916	
3610	0	32940	
3611	0	32644	
3612	0	32744	
3613	0	32812	
3614	0	32676	
3615	0	32608	
3616	0	32568	
3617	0	32537	
3618	0	32604	
3619	0	32586	
3620	0	32856	
3621	0	32816	
3622	0	32844	
3623	0	32892	
3624	0	32784	
3625	0	32788	
3626	0	32912	
3627	0	32881	
3628	0	32908	
3629	0	32903	
3630	0	32885	
3631	0	32704	
3632	0	32788	
3633	0	32740	
3634	0	32632	
3635	0	32544	
3636	0	32292	
3637	0	32486	
3638	0	32685	
3639	0	32676	
3640	0	32808	
3641	0	32932	
3642	0	33121	
3643	0	32909	
3644	0	32968	
3645	0	32924	
3646	0	32940	
3647	0	33156	
3648	0	32972	
3649	0	32668	
3650	0	32712	
3651	0	32596	
3652	0	32696	
3653	0	32753	
3654	0	32736	
3655	0	32620	
3656	0	32308	
3657	0	32464	
3658	0	32629	
3659	0	32608	
3660	0	32932	
3661	0	33040	
3662	0	32844	
3663	0	32864	
3664	0	32884	
3665	0	32812	
3666	0	32816	
3667	0	32904	
3668	0	32900	
3669	0	32924	
3670	0	33112	
3671	0	32768	
3672	0	32604	
3673	0	32652	
3674	0	32728	
3675	0	32692	
3676	0	32358	
3677	0	32556	
3678	0	32620	
3679	0	32544	
3680	0	32920	
3681	0	32990	
3682	0	32940	
3683	0	32944	
3684	0	32844	
3685	0	32928	
3686	0	32836	
3687	0	32792	
3688	0	32720	
3689	0	32796	
3690	0	32904	
3691	0	32784	
3692	0	32670	
3693	0	32620	
3694	0	32732	
3695	0	32580	
3696	0	32416	
3697	0	32668	
3698	0	32780	
3699	0	32740	
3700	0	32916	
3701	0	33032	
3702	0	32968	
3703	0	32880	
3704	0	32928	
3705	0	32834	
3706	0	32852	
3707	0	32884	
3708	0	32768	
3709	0	32880	
3710	0	32940	
3711	0	32730	
3712	0	32664	
3713	0	32593	
3714	0	32540	
3715	0	32646	
3716	0	32576	
3717	0	32620	
3718	0	32680	
3719	0	32597	
3720	0	32804	
3721	0	32885	
3722	0	32840	
3723	0	32864	
3724	0	32660	
3725	0	32884	
3726	0	32880	
3727	0	32924	
3728	0	32876	
3729	0	32862	
3730	0	33063	
3731	0	32852	
3732	0	32752	
3733	0	32608	
3734	0	32564	
3735	0	32660	
3736	0	32420	
3737	0	32606	
3738	0	32672	
3739	0	32680	
3740	0	32884	
3741	0	32904	
3742	0	32936	
3743	0	32944	
3744	0	32909	
3745	0	32916	
3746	0	33036	
3747	0	32929	
3748	0	32792	
3749	0	32900	
3750	0	33000	
3751	0	32712	
3752	0	32644	
3753	0	32548	
3754	0	32616	
3755	0	32564	
3756	0	32424	
3757	0	32608	
3758	0	32684	
3759	0	32676	
3760	0	32856	
3761	0	33024	
3762	0	32973	
3763	0	32766	
3764	0	32788	
3765	0	32788	
3766	0	32852	
3767	0	32924	
3768	0	32928	
3769	0	32864	
3770	0	32948	
3771	0	32768	
3772	0	32728	
3773	0	32620	
3774	0	32656	
3775	0	32720	
3776	0	32592	
3777	0	32652	
3778	0	32696	
3779	0	32656	
3780	0	32984	
3781	0	32964	
3782	0	32940	
3783	0	32944	
3784	0	32912	
3785	0	32748	
3786	0	32696	
3787	0	32784	
3788	0	32872	
3789	0	32844	
3790	0	32848	
3791	0	32716	
3792	0	32816	
3793	0	32628	
3794	0	32732	
3795	0	32672	
3796	0	32456	
3797	0	32648	
3798	0	32698	
3799	0	32749	
3800	0	33020	
3801	0	32918	
3802	0	32774	
3803	0	32750	
3804	0	32760	
3805	0	32804	
3806	0	32808	
3807	0	32872	
3808	0	32868	
3809	0	33100	
3810	0	32984	
3811	0	32799	
3812	0	32760	
3813	0	32652	
3814	0	32568	
3815	0	32500	
3816	0	32397	
3817	0	32560	
3818	0	32700	
3819	0	32709	
3820	0	33044	
3821	0	33068	
3822	0	32920	
3823	0	32852	
3824	0	32869	
3825	0	32704	
3826	0	32704	
3827	0	32776	
3828	0	32820	
3829	0	33032	
3830	0	32984	
3831	0	32792	
3832	0	32684	
3833	0	32620	
3834	0	32608	
3835	0	32692	
3836	0	32460	
3837	0	32668	
3838	0	32716	
3839	0	32692	
3840	0	33008	
3841	0	32952	
3842	0	32776	
3843	0	32848	
3844	0	32904	
3845	0	32996	
3846	0	32894	
3847	0	32896	
3848	0	32740	
3849	0	32816	
3850	0	32736	
3851	0	32657	
3852	0	32856	
3853	0	32824	
3854	0	32684	
3855	0	32756	
3856	0	32456	
3857	0	32456	
3858	0	32640	
3859	0	32557	
3860	0	32780	
3861	0	32880	
3862	0	32896	
3863	0	32984	
3864	0	32844	
3865	0	32856	
3866	0	32940	
3867	0	33040	
3868	0	32900	
3869	0	32948	
3870	0	32888	
3871	0	32777	
3872	0	32736	
3873	0	32624	
3874	0	32548	
3875	0	32532	
3876	0	32580	
3877	0	32745	
3878	0	32676	
3879	0	32512	
3880	0	32692	
3881	0	32852	
3882	0	32884	
3883	0	32960	
3884	0	33084	
3885	0	32980	
3886	0	32860	
3887	0	32928	
3888	0	32774	
3889	0	32908	
3890	0	32924	
3891	0	32864	
3892	0	32698	
3893	0	32588	
3894	0	32720	
3895	0	32572	
3896	0	32529	
3897	0	32684	
3898	0	32644	
3899	0	32677	
3900	0	32916	
3901	0	32933	
3902	0	32900	
3903	0	32933	
3904	0	32892	
3905	0	32864	
3906	0	32800	
3907	0	32988	
3908	0	32981	
3909	0	33061	
3910	0	32936	
3911	0	32704	
3912	0	32552	
3913	0	32576	
3914	0	32725	
3915	0	32480	
3916	0	32404	
3917	0	32660	
3918	0	32740	
3919	0	32748	
3920	0	32852	
3921	0	32864	
3922	0	32940	
3923	0	33045	
3924	0	32956	
3925	0	32936	
3926	0	32860	
3927	0	32836	
3928	0	32840	
3929	0	32900	
3930	0	32904	
3931	0	32656	
3932	0	32480	
3933	0	32669	
3934	0	32584	
3935	0	32692	
3936	0	32508	
3937	0	32568	
3938	0	32696	
3939	0	32976	
3940	0	33056	
3941	0	33060	
3942	0	32983	
3943	0	32781	
3944	0	32772	
3945	0	32824	
3946	0	32856	
3947	0	32940	
3948	0	32844	
3949	0	32920	
3950	0	32880	
3951	0	32704	
3952	0	32668	
3953	0	32746	
3954	0	32719	
3955	0	32444	
3956	0	32444	
3957	0	32712	
3958	0	32792	
3959	0	32820	
3960	0	32928	
3961	0	33036	
3962	0	32976	
3963	0	32908	
3964	0	32760	
3965	0	32776	
3966	0	32912	
3967	0	32856	
3968	0	32668	
3969	0	32800	
3970	0	32672	
3971	0	32644	
3972	0	32648	
3973	0	32824	
3974	0	32844	
3975	0	32596	
3976	0	32464	
3977	0	32622	
3978	0	32740	
3979	0	32845	
3980	0	32988	
3981	0	32949	
3982	0	32996	
3983	0	32772	
3984	0	32716	
3985	0	32780	
3986	0	32886	
3987	0	32879	
3988	0	32997	
3989	0	33020	
3990	0	32796	
3991	0	32696	
3992	0	32568	
3993	0	32676	
3994	0	32780	
3995	0	32584	
3996	0	32640	
3997	0	32662	
3998	0	32748	
3999	0	32788	
4000	0	33012	
4001	0	33056	
4002	0	32828	
4003	0	32796	
4004	0	32844	
4005	0	32885	
4006	0	32796	
4007	0	32736	
4008	0	32644	
4009	0	32824	
4010	0	32852	
4011	0	32792	
4012	0	32804	
4013	0	32800	
4014	0	32732	
4015	0	32448	
4016	0	32572	
4017	0	32636	
4018	0	32733	
4019	0	32780	
4020	0	32872	
4021	0	32804	
4022	0	32833	
4023	0	32816	
4024	0	32844	
4025	0	32872	
4026	0	32948	
4027	0	32849	
4028	0	32852	
4029	0	32978	
4030	0	32864	
4031	0	32637	
4032	0	32640	
4033	0	32784	
4034	0	32656	
4035	0	32484	
4036	0	32652	
4037	0	32856	
4038	0	32820	
4039	0	32776	
4040	0	32804	
4041	0	32828	
4042	0	32988	
4043	0	32996	
4044	0	32768	
4045	0	32756	
4046	0	32816	
4047	0	32836	
4048	0	32868	
4049	0	32940	
4050	0	32736	
4051	0	32695	
4052	0	32608	
4053	0	32620	
4054	0	32528	
4055	0	32452	
4056	0	32584	
4057	0	32680	
4058	0	32804	
4059	0	32862	
4060	0	32904	
4061	0	32952	
4062	0	33096	
4063	0	32988	
4064	0	32988	
4065	0	32848	
4066	0	32816	
4067	0	32813	
4068	0	32910	
4069	0	32894	
4070	0	32800	
4071	0	32524	
4072	0	32628	
4073	0	32668	
4074	0	32732	
4075	0	32446	
4076	0	32528	
4077	0	32692	
4078	0	32604	
4079	0	32909	
4080	0	32927	
4081	0	32775	
4082	0	32688	
4083	0	32732	
4084	0	32872	
4085	0	32940	
4086	0	32930	
4087	0	32854	
4088	0	32840	
4089	0	33016	
4090	0	32832	
4091	0	32724	
4092	0	32698	
4093	0	32676	
4094	0	32714	
4095	0	32388	
4096	0	32581	
4097	0	32788	
4098	0	32673	
4099	0	32928	
4100	0	33080	
4101	0	33032	
4102	0	32916	
4103	0	32904	
4104	0	32964	
4105	0	32868	
4106	0	32845	
4107	0	32809	
4108	0	32736	
4109	0	33064	
4110	0	32824	
4111	0	32620	
4112	0	32690	
4113	0	32808	
4114	0	32624	
4115	0	32340	
4116	0	32421	
4117	0	32613	
4118	0	32708	
4119	0	32820	
4120	0	32936	
4121	0	32928	
4122	0	33008	
4123	0	32940	
4124	0	32772	
4125	0	32772	
4126	0	32852	
4127	0	32840	
4128	0	32880	
4129	0	32944	
4130	0	32844	
4131	0	32728	
4132	0	32600	
4133	0	32532	
4134	0	32592	
4135	0	32340	
4136	0	32560	
4137	0	32724	
4138	0	32644	
4139	0	32846	
4140	0	32916	
4141	0	33032	
4142	0	32832	
4143	0	32760	
4144	0	32799	
4145	0	32860	
4146	0	32969	
4147	0	32900	
4148	0	32864	
4149	0	33032	
4150	0	32784	
4151	0	32700	
4152	0	32604	
4153	0	32576	
4154	0	32709	
4155	0	32782	
4156	0	32628	
4157	0	32612	
4158	0	32596	
4159	0	32840	
4160	0	32821	
4161	0	32864	
4162	0	32816	
4163	0	32916	
4164	0	32952	
4165	0	32884	
4166	0	32964	
4167	0	32812	
4168	0	32541	
4169	0	32884	
4170	0	32696	
4171	0	32718	
4172	0	32736	
4173	0	32756	
4174	0	32644	
4175	0	32520	
4176	0	32640	
4177	0	32724	
4178	0	32712	
4179	0	32984	
4180	0	32808	
4181	0	32750	
4182	0	32901	
4183	0	32928	
4184	0	32872	
4185	0	32840	
4186	0	32836	
4187	0	32848	
4188	0	32888	
4189	0	33024	
4190	0	32820	
4191	0	32705	
4192	0	32668	
4193	0	32748	
4194	0	32600	
4195	0	32484	
4196	0	32704	
4197	0	32728	
4198	0	32644	
4199	0	32836	
4200	0	32668	
4201	0	32732	
4202	0	32868	
4203	0	32920	
4204	0	32900	
4205	0	32748	
4206	0	32852	
4207	0	32974	
4208	0	33062	
4209	0	33028	
4210	0	32764	
4211	0	32748	
4212	0	32656	
4213	0	32704	
4214	0	32588	
4215	0	32484	
4216	0	32612	
4217	0	32740	
4218	0	32741	
4219	0	32900	
4220	0	32812	
4221	0	32848	
4222	0	32768	
4223	0	32776	
4224	0	32885	
4225	0	32752	
4226	0	32848	
4227	0	32892	
4228	0	33064	
4229	0	33008	
4230	0	32744	
4231	0	32632	
4232	0	32632	
4233	0	32820	
4234	0	32649	
4235	0	32391	
4236	0	32604	
4237	0	32768	
4238	0	32724	
4239	0	32992	
4240	0	32904	
4241	0	32800	
4242	0	32792	
4243	0	32641	
4244	0	32784	
4245	0	32877	
4246	0	32968	
4247	0	33072	
4248	0	33096	
4249	0	33044	
4250	0	32644	
4251	0	32564	
4252	0	32592	
4253	0	32541	
4254	0	32511	
4255	0	32489	
4256	0	32616	
4257	0	32804	
4258	0	32804	
4259	0	32920	
4260	0	32900	
4261	0	32844	
4262	0	32824	
4263	0	32832	
4264	0	32840	
4265	0	32844	
4266	0	32960	
4267	0	32996	
4268	0	33044	
4269	0	32904	
4270	0	32712	
4271	0	32676	
4272	0	32649	
4273	0	32692	
4274	0	32549	
4275	0	32433	
4276	0	32604	
4277	0	32780	
4278	0	32780	
4279	0	32880	
4280	0	32816	
4281	0	32824	
4282	0	32984	
4283	0	32900	
4284	0	32873	
4285	0	32844	
4286	0	32934	
4287	0	32876	
4288	0	33012	
4289	0	32816	
4290	0	32654	
4291	0	32536	
4292	0	32416	
4293	0	32637	
4294	0	32734	
4295	0	32592	
4296	0	32740	
4297	0	32836	
4298	0	32800	
4299	0	32900	
4300	0	32984	
4301	0	32969	
4302	0	32920	
4303	0	32840	
4304	0	32748	
4305	0	32760	
4306	0	32740	
4307	0	32812	
4308	0	32976	
4309	0	32744	
4310	0	32584	
4311	0	32585	
4312	0	32652	
4313	0	32688	
4314	0	32692	
4315	0	32620	
4316	0	32756	
4317	0	32772	
4318	0	32740	
4319	0	32988	
4320	0	32925	
4321	0	32988	
4322	0	32900	
4323	0	32860	
4324	0	32828	
4325	0	32896	
4326	0	32830	
4327	0	32816	
4328	0	32904	
4329	0	32829	
4330	0	32624	
4331	0	32568	
4332	0	32612	
4333	0	32648	
4334	0	32672	
4335	0	32664	
4336	0	32764	
4337	0	32724	
4338	0	32744	
4339	0	32912	
4340	0	32924	
4341	0	32948	
4342	0	32960	
4343	0	32788	
4344	0	32780	
4345	0	32890	
4346	0	32936	
4347	0	32824	
4348	0	32884	
4349	0	32796	
4350	0	32660	
4351	0	32668	
4352	0	32540	
4353	0	32676	
4354	0	32644	
4355	0	32473	
4356	0	32672	
4357	0	32748	
4358	0	32836	
4359	0	33036	
4360	0	32992	
4361	0	32916	
4362	0	32888	
4363	0	32798	
4364	0	32816	
4365	0	32932	
4366	0	32932	
4367	0	32841	
4368	0	32988	
4369	0	32824	
4370	0	32584	
4371	0	32636	
4372	0	32540	
4373	0	32552	
4374	0	32560	
4375	0	32524	
4376	0	32668	
4377	0	32744	
4378	0	32812	
4379	0	32960	
4380	0	33132	
4381	0	33077	
4382	0	32910	
4383	0	32804	
4384	0	32916	
4385	0	32812	
4386	0	32828	
4387	0	32932	
4388	0	33024	
4389	0	32774	
4390	0	32720	
4391	0	32600	
4392	0	32710	
4393	0	32854	
4394	0	32572	
4395	0	32456	
4396	0	32588	
4397	0	32672	
4398	0	32836	
4399	0	32968	
4400	0	32856	
4401	0	32952	
4402	0	32877	
4403	0	32620	
4404	0	32628	
4405	0	32684	
4406	0	32816	
4407	0	32896	
4408	0	33012	
4409	0	32916	
4410	0	32656	
4411	0	32656	
4412	0	32730	
4413	0	32696	
4414	0	32568	
4415	0	32590	
4416	0	32588	
4417	0	32732	
4418	0	32816	
4419	0	32988	
4420	0	33000	
4421	0	32928	
4422	0	32892	
4423	0	32912	
4424	0	32908	
4425	0	32918	
4426	0	32992	
4427	0	32872	
4428	0	32900	
4429	0	32888	
4430	0	32605	
4431	0	32529	
4432	0	32500	
4433	0	32592	
4434	0	32380	
4435	0	32460	
4436	0	32716	
4437	0	32768	
4438	0	32884	
4439	0	32932	
4440	0	32940	
4441	0	32912	
4442	0	32904	
4443	0	32888	
4444	0	32888	
4445	0	32852	
4446	0	32815	
4447	0	32826	
4448	0	32940	
4449	0	32842	
4450	0	32716	
4451	0	32748	
4452	0	32612	
4453	0	32712	
4454	0	32382	
4455	0	32365	
4456	0	32568	
4457	0	32676	
4458	0	32992	
4459	0	33136	
4460	0	32976	
4461	0	32916	
4462	0	32838	
4463	0	32932	
4464	0	32889	
4465	0	32896	
4466	0	32884	
4467	0	32872	
4468	0	32880	
4469	0	32808	
4470	0	32684	
4471	0	32637	
4472	0	32590	
4473	0	32836	
4474	0	32460	
4475	0	32376	
4476	0	32572	
4477	0	32696	
4478	0	32960	
4479	0	33006	
4480	0	33012	
4481	0	32828	
4482	0	32696	
4483	0	32988	
4484	0	33013	
4485	0	32820	
4486	0	32756	
4487	0	32804	
4488	0	32840	
4489	0	32836	
4490	0	32806	
4491	0	32656	
4492	0	32624	
4493	0	32720	
4494	0	32492	
4495	0	32708	
4496	0	32740	
4497	0	32582	
4498	0	32716	
4499	0	32793	
4500	0	32847	
4501	0	32936	
4502	0	32880	
4503	0	32848	
4504	0	32816	
4505	0	32852	
4506	0	32820	
4507	0	32794	
4508	0	33004	
4509	0	32880	
4510	0	32832	
4511	0	32752	
4512	0	32750	
4513	0	32568	
4514	0	32436	
4515	0	32656	
4516	0	32836	
4517	0	32704	
4518	0	32856	
4519	0	32872	
4520	0	32796	
4521	0	32884	
4522	0	32980	
4523	0	32836	
4524	0	32782	
4525	0	32852	
4526	0	32920	
4527	0	32836	
4528	0	33036	
4529	0	32872	
4530	0	32728	
4531	0	32660	
4532	0	32604	
4533	0	32733	
4534	0	32444	
4535	0	32520	
4536	0	32775	
4537	0	32513	
4538	0	32696	
4539	0	32932	
4540	0	32752	
4541	0	32808	
4542	0	32912	
4543	0	32920	
4544	0	32848	
4545	0	32877	
4546	0	32828	
4547	0	32912	
4548	0	32962	
4549	0	32789	
4550	0	32818	
4551	0	32740	
4552	0	32697	
4553	0	32708	
4554	0	32432	
4555	0	32588	
4556	0	32716	
4557	0	32688	
4558	0	32797	
4559	0	32936	
4560	0	32993	
4561	0	32860	
4562	0	32856	
4563	0	32717	
4564	0	32654	
4565	0	32832	
4566	0	32796	
4567	0	32814	
4568	0	32997	
4569	0	32904	
4570	0	32888	
4571	0	32688	
4572	0	32696	
4573	0	32637	
4574	0	32456	
4575	0	32552	
4576	0	32708	
4577	0	32700	
4578	0	32940	
4579	0	32958	
4580	0	32920	
4581	0	32869	
4582	0	32836	
4583	0	32900	
4584	0	32868	
4585	0	32812	
4586	0	32856	
4587	0	32808	
4588	0	32940	
4589	0	32766	
4590	0	32780	
4591	0	32688	
4592	0	32656	
4593	0	32636	
4594	0	32336	
4595	0	32660	
4596	0	32768	
4597	0	32624	
4598	0	32876	
4599	0	32996	
4600	0	32944	
4601	0	32844	
4602	0	32800	
4603	0	32802	
4604	0	32856	
4605	0	33088	
4606	0	33020	
4607	0	32804	
4608	0	32884	
4609	0	32616	
4610	0	32652	
4611	0	32648	
4612	0	32676	
4613	0	32780	
4614	0	32530	
4615	0	32541	
4616	0	32616	
4617	0	32544	
4618	0	32742	
4619	0	32908	
4620	0	32948	
4621	0	32869	
4622	0	33132	
4623	0	33100	
4624	0	32902	
4625	0	32840	
4626	0	32784	
4627	0	32900	
4628	0	32872	
4629	0	32796	
4630	0	32676	
4631	0	32600	
4632	0	32636	
4633	0	32669	
4634	0	32400	
4635	0	32654	
4636	0	32716	
4637	0	32700	
4638	0	32908	
4639	0	32897	
4640	0	32864	
4641	0	32820	
4642	0	32824	
4643	0	32844	
4644	0	32768	
4645	0	32869	
4646	0	32908	
4647	0	32892	
4648	0	32996	
4649	0	32726	
4650	0	32492	
4651	0	32600	
4652	0	32656	
4653	0	32676	
4654	0	32440	
4655	0	32604	
4656	0	32820	
4657	0	32620	
4658	0	32788	
4659	0	32845	
4660	0	33020	
4661	0	32980	
4662	0	32988	
4663	0	32900	
4664	0	32872	
4665	0	32980	
4666	0	32956	
4667	0	33028	
4668	0	32920	
4669	0	32568	
4670	0	32512	
4671	0	32490	
4672	0	32588	
4673	0	32680	
4674	0	32420	
4675	0	32740	
4676	0	32816	
4677	0	32696	
4678	0	32824	
4679	0	32920	
4680	0	32877	
4681	0	32840	
4682	0	32924	
4683	0	32901	
4684	0	32840	
4685	0	32897	
4686	0	32760	
4687	0	32920	
4688	0	33064	
4689	0	32904	
4690	0	32736	
4691	0	32605	
4692	0	32444	
4693	0	32532	
4694	0	32432	
4695	0	32552	
4696	0	32772	
4697	0	32637	
4698	0	32840	
4699	0	32834	
4700	0	32916	
4701	0	32900	
4702	0	32992	
4703	0	33068	
4704	0	32840	
4705	0	32820	
4706	0	32860	
4707	0	32889	
4708	0	32944	
4709	0	32788	
4710	0	32744	
4711	0	32616	
4712	0	32500	
4713	0	32580	
4714	0	32372	
4715	0	32548	
4716	0	32636	
4717	0	32696	
4718	0	32822	
4719	0	32852	
4720	0	32840	
4721	0	32960	
4722	0	32928	
4723	0	32746	
4724	0	32812	
4725	0	32994	
4726	0	33020	
4727	0	33028	
4728	0	33004	
4729	0	32836	
4730	0	32740	
4731	0	32660	
4732	0	32629	
4733	0	32564	
4734	0	32380	
4735	0	32768	
4736	0	32952	
4737	0	32724	
4738	0	32840	
4739	0	32900	
4740	0	32916	
4741	0	32872	
4742	0	32833	
4743	0	32782	
4744	0	32800	
4745	0	32728	
4746	0	32888	
4747	0	33017	
4748	0	32976	
4749	0	32804	
4750	0	32628	
4751	0	32633	
4752	0	32632	
4753	0	32600	
4754	0	32532	
4755	0	32676	
4756	0	32620	
4757	0	32708	
4758	0	32992	
4759	0	33052	
4760	0	32928	
4761	0	32902	
4762	0	32780	
4763	0	32764	
4764	0	32688	
4765	0	32868	
4766	0	32876	
4767	0	32924	
4768	0	32924	
4769	0	32693	
4770	0	32760	
4771	0	32744	
4772	0	32748	
4773	0	32612	
4774	0	32332	
4775	0	32588	
4776	0	32692	
4777	0	32492	
4778	0	32644	
4779	0	32752	
4780	0	32736	
4781	0	32772	
4782	0	32824	
4783	0	32949	
4784	0	33000	
4785	0	33132	
4786	0	32976	
4787	0	33104	
4788	0	33052	
4789	0	32792	
4790	0	32696	
4791	0	32516	
4792	0	32488	
4793	0	32608	
4794	0	32528	
4795	0	32668	
4796	0	32736	
4797	0	32756	
4798	0	32996	
4799	0	32908	
4800	0	32892	
4801	0	32821	
4802	0	32902	
4803	0	32804	
4804	0	32804	
4805	0	32776	
4806	0	32800	
4807	0	32956	
4808	0	32876	
4809	0	32644	
4810	0	32672	
4811	0	32616	
4812	0	32794	
4813	0	32708	
4814	0	32548	
4815	0	32748	
4816	0	32716	
4817	0	32696	
4818	0	32856	
4819	0	32797	
4820	0	32772	
4821	0	32920	
4822	0	32844	
4823	0	32852	
4824	0	32884	
4825	0	33145	
4826	0	32932	
4827	0	32968	
4828	0	32772	
4829	0	32592	
4830	0	32553	
4831	0	32606	
4832	0	32652	
4833	0	32380	
4834	0	32416	
4835	0	32664	
4836	0	32865	
4837	0	32884	
4838	0	32996	
4839	0	33048	
4840	0	33016	
4841	0	32844	
4842	0	32784	
4843	0	32748	
4844	0	32834	
4845	0	32934	
4846	0	32852	
4847	0	32924	
4848	0	32832	
4849	0	32669	
4850	0	32688	
4851	0	32529	
4852	0	32564	
4853	0	32572	
4854	0	32568	
4855	0	32768	
4856	0	32764	
4857	0	32832	
4858	0	32932	
4859	0	32856	
4860	0	32836	
4861	0	32910	
4862	0	32868	
4863	0	32880	
4864	0	32932	
4865	0	32935	
4866	0	32844	
4867	0	32880	
4868	0	32796	
4869	0	32724	
4870	0	32668	
4871	0	32612	
4872	0	32500	
4873	0	32328	
4874	0	32398	
4875	0	32708	
4876	0	32756	
4877	0	32784	
4878	0	32948	
4879	0	32948	
4880	0	32960	
4881	0	32980	
4882	0	32780	
4883	0	32856	
4884	0	33080	
4885	0	33016	
4886	0	32888	
4887	0	32996	
4888	0	32728	
4889	0	32616	
4890	0	32833	
4891	0	32544	
4892	0	32548	
4893	0	32292	
4894	0	32380	
4895	0	32693	
4896	0	32784	
4897	0	32888	
4898	0	33096	
4899	0	33004	
4900	0	32820	
4901	0	32824	
4902	0	32840	
4903	0	32895	
4904	0	32900	
4905	0	32872	
4906	0	32824	
4907	0	32988	
4908	0	32704	
4909	0	32740	
4910	0	32536	
4911	0	32684	
4912	0	32756	
4913	0	32556	
4914	0	32568	
4915	0	32668	
4916	0	32812	
4917	0	32800	
4918	0	32996	
4919	0	32900	
4920	0	32708	
4921	0	32780	
4922	0	32872	
4923	0	32952	
4924	0	32912	
4925	0	32876	
4926	0	32692	
4927	0	32950	
4928	0	32832	
4929	0	32736	
4930	0	32732	
4931	0	32612	
4932	0	32552	
4933	0	32404	
4934	0	32582	
4935	0	32820	
4936	0	32846	
4937	0	32928	
4938	0	32844	
4939	0	32905	
4940	0	32838	
4941	0	32892	
4942	0	32820	
4943	0	32736	
4944	0	32772	
4945	0	32879	
4946	0	32852	
4947	0	33060	
4948	0	33060	
4949	0	32876	
4950	0	32628	
4951	0	32488	
4952	0	32605	
4953	0	32421	
4954	0	32437	
4955	0	32580	
4956	0	32784	
4957	0	32916	
4958	0	32932	
4959	0	33017	
4960	0	32996	
4961	0	32860	
4962	0	32764	
4963	0	32780	
4964	0	32820	
4965	0	32868	
4966	0	32900	
4967	0	33060	
4968	0	32868	
4969	0	32612	
4970	0	32668	
4971	0	32648	
4972	0	32656	
4973	0	32392	
4974	0	32576	
4975	0	32753	
4976	0	32736	
4977	0	32861	
4978	0	32972	
4979	0	32912	
4980	0	32860	
4981	0	32812	
4982	0	32772	
4983	0	32816	
4984	0	33136	
4985	0	32988	
4986	0	32742	
4987	0	32864	
4988	0	32532	
4989	0	32692	
4990	0	32892	
4991	0	32710	
4992	0	32492	
4993	0	32300	
4994	0	32528	
4995	0	32776	
4996	0	32744	
4997	0	32944	
4998	0	33052	
4999	0	33212	
5000	0	32932	
5001	0	32717	
5002	0	32764	
5003	0	32750	
5004	0	32964	
5005	0	32997	
5006	0	32888	
5007	0	32920	
5008	0	32748	
5009	0	32716	
5010	0	32584	
5011	0	32484	
5012	0	32560	
5013	0	32284	
5014	0	32580	
5015	0	32766	
5016	0	32864	
5017	0	33164	
5018	0	32981	
5019	0	32788	
5020	0	32752	
5021	0	32766	
5022	0	32868	
5023	0	32764	
5024	0	32676	
5025	0	32796	
5026	0	32896	
5027	0	32920	
5028	0	32752	
5029	0	32690	
5030	0	32673	
5031	0	32796	
5032	0	32812	
5033	0	32468	
5034	0	32516	
5035	0	32636	
5036	0	32737	
5037	0	33032	
5038	0	33044	
5039	0	32964	
5040	0	32812	
5041	0	32788	
5042	0	32768	
5043	0	32824	
5044	0	32896	
5045	0	32880	
5046	0	32837	
5047	0	32901	
5048	0	32756	
5049	0	32644	
5050	0	32636	
5051	0	32672	
5052	0	32669	
5053	0	32612	
5054	0	32628	
5055	0	32944	
5056	0	32848	
5057	0	32870	
5058	0	32839	
5059	0	32932	
5060	0	32841	
5061	0	32884	
5062	0	32826	
5063	0	32792	
5064	0	32732	
5065	0	32798	
5066	0	32844	
5067	0	32957	
5068	0	32900	
5069	0	32741	
5070	0	32544	
5071	0	32512	
5072	0	32574	
5073	0	32380	
5074	0	32663	
5075	0	32852	
5076	0	32768	
5077	0	32836	
5078	0	32912	
5079	0	32984	
5080	0	32920	
5081	0	33004	
5082	0	32809	
5083	0	32766	
5084	0	32849	
5085	0	32876	
5086	0	32720	
5087	0	32892	
5088	0	32920	
5089	0	32948	
5090	0	32728	
5091	0	32780	
5092	0	32712	
5093	0	32365	
5094	0	32636	
5095	0	32844	
5096	0	32488	
5097	0	32693	
5098	0	32824	
5099	0	32868	
5100	0	32836	
5101	0	32780	
5102	0	32644	
5103	0	32756	
5104	0	32856	
5105	0	33056	
5106	0	32988	
5107	0	32944	
5108	0	32620	
5109	0	32716	
5110	0	32900	
5111	0	32964	
5112	0	32788	
5113	0	32452	
5114	0	32508	
5115	0	32600	
5116	0	32561	
5117	0	32869	
5118	0	33040	
5119	0	32800	
5120	0	32796	
5121	0	32813	
5122	0	32916	
5123	0	32836	
5124	0	32816	
5125	0	32956	
5126	0	32880	
5127	0	32874	
5128	0	32688	
5129	0	32572	
5130	0	32628	
5131	0	32676	
5132	0	32570	
5133	0	32536	
5134	0	32712	
5135	0	32860	
5136	0	32680	
5137	0	32992	
5138	0	33128	
5139	0	33180	
5140	0	33169	
5141	0	33020	
5142	0	32824	
5143	0	32384	
5144	0	32560	
5145	0	32764	
5146	0	32916	
5147	0	33060	
5148	0	32820	
5149	0	32640	
5150	0	32356	
5151	0	32132	
5152	0	32316	
5153	0	32432	
5154	0	32672	
5155	0	32857	
5156	0	32836	
5157	0	33016	
5158	0	32932	
5159	0	33136	
5160	0	33024	
5161	0	32800	
5162	0	33124	
5163	0	33216	
5164	0	32868	
5165	0	32568	
5166	0	32708	
5167	0	32940	
5168	0	32784	
5169	0	32980	
5170	0	32880	
5171	0	32730	
5172	0	32600	
5173	0	32404	
5174	0	32497	
5175	0	32576	
5176	0	32532	
5177	0	32784	
5178	0	32796	
5179	0	32856	
5180	0	32864	
5181	0	32840	
5182	0	32924	
5183	0	32852	
5184	0	32888	
5185	0	32944	
5186	0	33008	
5187	0	33028	
5188	0	32832	
5189	0	32920	
5190	0	32772	
5191	0	32592	
5192	0	32536	
5193	0	32564	
5194	0	32808	
5195	0	32916	
5196	0	32708	
5197	0	32800	
5198	0	32952	
5199	0	32990	
5200	0	32936	
5201	0	32648	
5202	0	32500	
5203	0	32500	
5204	0	32786	
5205	0	32764	
5206	0	32933	
5207	0	32988	
5208	0	32636	
5209	0	32296	
5210	0	32440	
5211	0	32548	
5212	0	32640	
5213	0	32685	
5214	0	32916	
5215	0	32900	
5216	0	33117	
5217	0	33102	
5218	0	33228	
5219	0	33376	
5220	0	33380	
5221	0	32940	
5222	0	32372	
5223	0	32061	
5224	0	32048	
5225	0	32240	
5226	0	32384	
5227	0	32572	
5228	0	32336	
5229	0	32364	
5230	0	32584	
5231	0	33192	
5232	0	33028	
5233	0	32536	
5234	0	32572	
5235	0	32669	
5236	0	32972	
5237	0	33276	
5238	0	33356	
5239	0	33184	
5240	0	32813	
5241	0	32622	
5242	0	32280	
5243	0	32301	
5244	0	32825	
5245	0	32752	
5246	0	33101	
5247	0	32396	
5248	0	31485	
5249	0	31516	
5250	0	31700	
5251	0	32188	
5252	0	32540	
5253	0	32580	
5254	0	33044	
5255	0	33608	
5256	0	34176	
5257	0	34344	
5258	0	34144	
5259	0	34716	
5260	0	34669	
5261	0	34256	
5262	0	33820	
5263	0	33728	
5264	0	33264	
5265	0	33112	
5266	0	33256	
5267	0	32968	
5268	0	32356	
5269	0	32281	
5270	0	31832	
5271	0	30660	
5272	0	30368	
5273	0	30644	
5274	0	30544	
5275	0	30828	
5276	0	31181	
5277	0	31928	
5278	0	33169	
5279	0	34204	
5280	0	34056	
5281	0	34096	
5282	0	34353	
5283	0	34464	
5284	0	34748	
5285	0	34272	
5286	0	34176	
5287	0	34200	
5288	0	34840	
5289	0	34934	
5290	0	34564	
5291	0	32708	
5292	0	30492	
5293	0	30236	
5294	0	30636	
5295	0	31261	
5296	0	31116	
5297	0	29313	
5298	0	26500	
5299	0	26328	
5300	0	27476	
5301	0	29224	
5302	0	31436	
5303	0	33064	
5304	0	34232	
5305	0	34224	
5306	0	36180	
5307	0	37772	
5308	0	37464	
5309	0	37300	
5310	0	36600	
5311	0	35871	
5312	0	34613	
5313	0	32228	
5314	0	32524	
5315	0	33804	
5316	0	33768	
5317	0	33673	
5318	0	33428	
5319	0	33376	
5320	0	33012	
5321	0	32200	
5322	0	32776	
5323	0	32864	
5324	0	32693	
5325	0	32740	
5326	0	32048	
5327	0	31752	
5328	0	31712	
5329	0	31732	
5330	0	31280	
5331	0	31316	
5332	0	32056	
5333	0	32708	
5334	0	32864	
5335	0	34000	
5336	0	34248	
5337	0	33476	
5338	0	33295	
5339	0	33052	
5340	0	32688	
5341	0	32313	
5342	0	31800	
5343	0	30728	
5344	0	29588	
5345	0	29564	
5346	0	30632	
5347	0	31460	
5348	0	33388	
5349	0	34404	
5350	0	34776	
5351	0	34569	
5352	0	34124	
5353	0	34476	
5354	0	34100	
5355	0	33952	
5356	0	34108	
5357	0	33928	
5358	0	34792	
5359	0	34072	
5360	0	32612	
5361	0	32140	
5362	0	31668	
5363	0	31492	
5364	0	31728	
5365	0	31948	
5366	0	31400	
5367	0	31448	
5368	0	31152	
5369	0	32132	
5370	0	32644	
5371	0	32772	
5372	0	32304	
5373	0	31996	
5374	0	31420	
5375	0	31096	
5376	0	31152	
5377	0	31728	
5378	0	32996	
5379	0	34464	
5380	0	34817	
5381	0	34732	
5382	0	35232	
5383	0	34542	
5384	0	34044	
5385	0	34204	
5386	0	33620	
5387	0	32468	
5388	0	31964	
5389	0	31662	
5390	0	30772	
5391	0	28844	
5392	0	28540	
5393	0	29020	
5394	0	29932	
5395	0	31877	
5396	0	33736	
5397	0	35124	
5398	0	35860	
5399	0	36460	
5400	0	36620	
5401	0	36748	
5402	0	35728	
5403	0	34768	
5404	0	33921	
5405	0	34072	
5406	0	34492	
5407	0	33552	
5408	0	32644	
5409	0	31776	
5410	0	31500	
5411	0	31732	
5412	0	31664	
5413	0	31901	
5414	0	31780	
5415	0	31768	
5416	0	31636	
5417	0	31896	
5418	0	31980	
5419	0	31448	
5420	0	31536	
5421	0	31972	
5422	0	32769	
5423	0	32448	
5424	0	31520	
5425	0	30909	
5426	0	31037	
5427	0	31536	
5428	0	32720	
5429	0	33510	
5430	0	34448	
5431	0	34960	
5432	0	33976	
5433	0	32676	
5434	0	32548	
5435	0	31632	
5436	0	31688	
5437	0	32012	
5438	0	32692	
5439	0	31768	
5440	0	31916	
5441	0	32532	
5442	0	34312	
5443	0	34668	
5444	0	33594	
5445	0	32032	
5446	0	30544	
5447	0	28532	
5448	0	28428	
5449	0	30132	
5450	0	32961	
5451	0	34056	
5452	0	36072	
5453	0	36832	
5454	0	37128	
5455	0	38164	
5456	0	37948	
5457	0	36816	
5458	0	35352	
5459	0	34824	
5460	0	34040	
5461	0	34280	
5462	0	34436	
5463	0	34012	
5464	0	33292	
5465	0	32000	
5466	0	30832	
5467	0	29716	
5468	0	28892	
5469	0	28532	
5470	0	28680	
5471	0	29460	
5472	0	28624	
5473	0	25448	
5474	0	26352	
5475	0	28352	
5476	0	31038	
5477	0	32964	
5478	0	35108	
5479	0	37960	
5480	0	40332	
5481	0	40640	
5482	0	39480	
5483	0	38468	
5484	0	37628	
5485	0	35341	
5486	0	33713	
5487	0	33445	
5488	0	33028	
5489	0	31609	
5490	0	30380	
5491	0	30228	
5492	0	29790	
5493	0	28708	
5494	0	29012	
5495	0	29704	
5496	0	30720	
5497	0	31528	
5498	0	31276	
5499	0	31348	
5500	0	31236	
5501	0	30548	
5502	0	29660	
5503	0	30616	
5504	0	32828	
5505	0	34656	
5506	0	35168	
5507	0	34264	
5508	0	33884	
5509	0	32964	
5510	0	32324	
5511	0	33404	
5512	0	34752	
5513	0	35080	
5514	0	35236	
5515	0	34848	
5516	0	34972	
5517	0	32808	
5518	0	31072	
5519	0	28709	
5520	0	27168	
5521	0	29024	
5522	0	31774	
5523	0	33532	
5524	0	34820	
5525	0	34882	
5526	0	33765	
5527	0	31712	
5528	0	31656	
5529	0	33637	
5530	0	35292	
5531	0	36152	
5532	0	36733	
5533	0	38216	
5534	0	38292	
5535	0	37696	
5536	0	36533	
5537	0	35244	
5538	0	31704	
5539	0	28320	
5540	0	28378	
5541	0	29440	
5542	0	29256	
5543	0	28570	
5544	0	26759	
5545	0	27008	
5546	0	29172	
5547	0	30800	
5548	0	32725	
5549	0	34036	
5550	0	35712	
5551	0	37024	
5552	0	37712	
5553	0	37868	
5554	0	38000	
5555	0	37556	
5556	0	36588	
5557	0	35360	
5558	0	32584	
5559	0	30132	
5560	0	30340	
5561	0	29721	
5562	0	28180	
5563	0	26257	
5564	0	25364	
5565	0	28280	
5566	0	30884	
5567	0	32364	
5568	0	33420	
5569	0	34392	
5570	0	34880	
5571	0	35708	
5572	0	36841	
5573	0	37160	
5574	0	37552	
5575	0	37244	
5576	0	36108	
5577	0	34072	
5578	0	32506	
5579	0	32692	
5580	0	31542	
5581	0	29472	
5582	0	29316	
5583	0	29870	
5584	0	30096	
5585	0	29404	
5586	0	29545	
5587	0	30024	
5588	0	30560	
5589	0	28156	
5590	0	25004	
5591	0	23204	
5592	0	25888	
5593	0	30536	
5594	0	34036	
5595	0	36024	
5596	0	39192	
5597	0	40620	
5598	0	42232	
5599	0	42804	
5600	0	40648	
5601	0	36133	
5602	0	30692	
5603	0	29850	
5604	0	31388	
5605	0	32844	
5606	0	33300	
5607	0	31364	
5608	0	29664	
5609	0	32460	
5610	0	34436	
5611	0	34116	
5612	0	32088	
5613	0	31820	
5614	0	33533	
5615	0	36188	
5616	0	38116	
5617	0	38822	
5618	0	35254	
5619	0	29724	
5620	0	28900	
5621	0	29686	
5622	0	30648	
5623	0	32860	
5624	0	32956	
5625	0	34820	
5626	0	34400	
5627	0	33528	
5628	0	31716	
5629	0	28808	
5630	0	28444	
5631	0	27984	
5632	0	28572	
5633	0	30948	
5634	0	34156	
5635	0	36713	
5636	0	35800	
5637	0	34128	
5638	0	35292	
5639	0	36784	
5640	0	35764	
5641	0	34836	
5642	0	34196	
5643	0	34120	
5644	0	33276	
5645	0	32320	
5646	0	30492	
5647	0	29506	
5648	0	28144	
5649	0	28360	
5650	0	29224	
5651	0	30072	
5652	0	31036	
5653	0	32937	
5654	0	32532	
5655	0	32548	
5656	0	33477	
5657	0	34672	
5658	0	34001	
5659	0	32508	
5660	0	30588	
5661	0	28977	
5662	0	28804	
5663	0	30810	
5664	0	31796	
5665	0	32796	
5666	0	35140	
5667	0	37740	
5668	0	37172	
5669	0	32476	
5670	0	33024	
5671	0	33972	
5672	0	33800	
5673	0	33364	
5674	0	35820	
5675	0	38764	
5676	0	39248	
5677	0	38116	
5678	0	35572	
5679	0	30624	
5680	0	26964	
5681	0	23380	
5682	0	23876	
5683	0	27028	
5684	0	30204	
5685	0	33444	
5686	0	34644	
5687	0	34756	
5688	0	35300	
5689	0	36460	
5690	0	36888	
5691	0	36876	
5692	0	36264	
5693	0	37160	
5694	0	37737	
5695	0	36288	
5696	0	34784	
5697	0	34012	
5698	0	32394	
5699	0	31596	
5700	0	32766	
5701	0	32108	
5702	0	30133	
5703	0	28828	
5704	0	28700	
5705	0	29104	
5706	0	29926	
5707	0	31252	
5708	0	32064	
5709	0	31616	
5710	0	30616	
5711	0	30256	
5712	0	30552	
5713	0	30872	
5714	0	30104	
5715	0	30832	
5716	0	31812	
5717	0	31760	
5718	0	32552	
5719	0	34208	
5720	0	34412	
5721	0	36148	
5722	0	37536	
5723	0	37716	
5724	0	36177	
5725	0	36172	
5726	0	36304	
5727	0	35494	
5728	0	31644	
5729	0	27632	
5730	0	25416	
5731	0	24728	
5732	0	24860	
5733	0	24816	
5734	0	27848	
5735	0	32437	
5736	0	36064	
5737	0	35188	
5738	0	32920	
5739	0	26492	
5740	0	26468	
5741	0	31593	
5742	0	36113	
5743	0	40460	
5744	0	43924	
5745	0	45216	
5746	0	46548	
5747	0	45472	
5748	0	42176	
5749	0	39832	
5750	0	36416	
5751	0	32488	
5752	0	28372	
5753	0	26212	
5754	0	27692	
5755	0	27648	
5756	0	25244	
5757	0	23780	
5758	0	25276	
5759	0	28028	
5760	0	29812	
5761	0	30156	
5762	0	31628	
5763	0	32864	
5764	0	32968	
5765	0	33112	
5766	0	32153	
5767	0	32948	
5768	0	33172	
5769	0	32692	
5770	0	29213	
5771	0	25080	
5772	0	26016	
5773	0	31316	
5774	0	36184	
5775	0	38052	
5776	0	38228	
5777	0	38312	
5778	0	40424	
5779	0	41844	
5780	0	39759	
5781	0	37936	
5782	0	37860	
5783	0	36064	
5784	0	35708	
5785	0	34213	
5786	0	32296	
5787	0	28143	
5788	0	26320	
5789	0	27808	
5790	0	28364	
5791	0	30228	
5792	0	32056	
5793	0	33928	
5794	0	34696	
5795	0	34352	
5796	0	34192	
5797	0	33108	
5798	0	32192	
5799	0	32000	
5800	0	32068	
5801	0	32024	
5802	0	31516	
5803	0	32992	
5804	0	35084	
5805	0	33277	
5806	0	30348	
5807	0	27244	
5808	0	27964	
5809	0	29316	
5810	0	29473	
5811	0	29788	
5812	0	29248	
5813	0	29892	
5814	0	31964	
5815	0	33452	
5816	0	34348	
5817	0	34892	
5818	0	34604	
5819	0	31830	
5820	0	28956	
5821	0	30180	
5822	0	32130	
5823	0	34728	
5824	0	36052	
5825	0	35565	
5826	0	34840	
5827	0	34506	
5828	0	34488	
5829	0	33912	
5830	0	34604	
5831	0	35342	
5832	0	35956	
5833	0	34328	
5834	0	33390	
5835	0	34344	
5836	0	34636	
5837	0	34648	
5838	0	33924	
5839	0	32265	
5840	0	32996	
5841	0	32624	
5842	0	30824	
5843	0	31188	
5844	0	32896	
5845	0	32168	
5846	0	32776	
5847	0	33404	
5848	0	33592	
5849	0	33540	
5850	0	32352	
5851	0	32156	
5852	0	32124	
5853	0	31316	
5854	0	29124	
5855	0	27712	
5856	0	25620	
5857	0	27520	
5858	0	28430	
5859	0	29608	
5860	0	32344	
5861	0	35016	
5862	0	37404	
5863	0	38868	
5864	0	38536	
5865	0	37064	
5866	0	34580	
5867	0	35352	
5868	0	35285	
5869	0	33502	
5870	0	33965	
5871	0	33728	
5872	0	31524	
5873	0	33188	
5874	0	35376	
5875	0	35520	
5876	0	35048	
5877	0	34180	
5878	0	32622	
5879	0	30548	
5880	0	29826	
5881	0	30888	
5882	0	32697	
5883	0	33908	
5884	0	33976	
5885	0	33484	
5886	0	33088	
5887	0	32120	
5888	0	31716	
5889	0	31476	
5890	0	30708	
5891	0	29884	
5892	0	29894	
5893	0	31352	
5894	0	31040	
5895	0	30436	
5896	0	30952	
5897	0	31692	
5898	0	33404	
5899	0	34272	
5900	0	33016	
5901	0	31140	
5902	0	29080	
5903	0	29304	
5904	0	29720	
5905	0	31044	
5906	0	33680	
5907	0	34656	
5908	0	35128	
5909	0	35154	
5910	0	34212	
5911	0	34256	
5912	0	35192	
5913	0	35448	
5914	0	35185	
5915	0	34512	
5916	0	33886	
5917	0	32774	
5918	0	33012	
5919	0	34084	
5920	0	33896	
5921	0	33057	
5922	0	33760	
5923	0	33888	
5924	0	30648	
5925	0	28556	
5926	0	28540	
5927	0	29632	
5928	0	30884	
5929	0	31600	
5930	0	31832	
5931	0	31660	
5932	0	32633	
5933	0	33932	
5934	0	34268	
5935	0	32776	
5936	0	33100	
5937	0	33496	
5938	0	34328	
5939	0	32792	
5940	0	30352	
5941	0	29392	
5942	0	30548	
5943	0	34416	
5944	0	36652	
5945	0	37934	
5946	0	36588	
5947	0	36486	
5948	0	38116	
5949	0	37384	
5950	0	35744	
5951	0	32992	
5952	0	31104	
5953	0	31592	
5954	0	30884	
5955	0	29708	
5956	0	31388	
5957	0	31716	
5958	0	33180	
5959	0	34336	
5960	0	32956	
5961	0	32598	
5962	0	33036	
5963	0	33460	
5964	0	33536	
5965	0	31724	
5966	0	29720	
5967	0	29694	
5968	0	30584	
5969	0	29616	
5970	0	28512	
5971	0	27432	
5972	0	28672	
5973	0	31212	
5974	0	32916	
5975	0	34792	
5976	0	35968	
5977	0	37328	
5978	0	37656	
5979	0	36356	
5980	0	34889	
5981	0	34320	
5982	0	33660	
5983	0	34336	
5984	0	33360	
5985	0	30794	
5986	0	29551	
5987	0	29428	
5988	0	30208	
5989	0	30012	
5990	0	30736	
5991	0	33220	
5992	0	34716	
5993	0	35057	
5994	0	35156	
5995	0	30656	
5996	0	27813	
5997	0	27876	
5998	0	29676	
5999	0	32412	
6000	0	34896	
6001	0	36048	
6002	0	35956	
6003	0	36060	
6004	0	35692	
6005	0	34528	
6006	0	34116	
6007	0	33696	
6008	0	33800	
6009	0	32836	
6010	0	33220	
6011	0	31768	
6012	0	32573	
6013	0	33972	
6014	0	33256	
6015	0	33576	
6016	0	31308	
6017	0	30456	
6018	0	31612	
6019	0	31496	
6020	0	30476	
6021	0	30064	
6022	0	31760	
6023	0	32972	
6024	0	34720	
6025	0	36340	
6026	0	36956	
6027	0	36768	
6028	0	37337	
6029	0	35452	
6030	0	30236	
6031	0	30589	
6032	0	32092	
6033	0	32840	
6034	0	34120	
6035	0	34164	
6036	0	31344	
6037	0	29384	
6038	0	29560	
6039	0	29668	
6040	0	31148	
6041	0	30862	
6042	0	29764	
6043	0	30869	
6044	0	32640	
6045	0	35068	
6046	0	36268	
6047	0	37312	
6048	0	37028	
6049	0	35924	
6050	0	31624	
6051	0	26660	
6052	0	25736	
6053	0	28108	
6054	0	31720	
6055	0	34116	
6056	0	34872	
6057	0	35800	
6058	0	36324	
6059	0	36448	
6060	0	35560	
6061	0	34204	
6062	0	31236	
6063	0	22708	
6064	0	21880	
6065	0	26424	
6066	0	30872	
6067	0	34520	
6068	0	36290	
6069	0	38008	
6070	0	38374	
6071	0	38552	
6072	0	37776	
6073	0	34776	
6074	0	32080	
6075	0	33876	
6076	0	34596	
6077	0	34040	
6078	0	33664	
6079	0	33968	
6080	0	33368	
6081	0	33120	
6082	0	32948	
6083	0	30204	
6084	0	29820	
6085	0	31480	
6086	0	30920	
6087	0	30596	
6088	0	29436	
6089	0	28204	
6090	0	26813	
6091	0	29652	
6092	0	33308	
6093	0	35316	
6094	0	35065	
6095	0	35636	
6096	0	35812	
6097	0	36045	
6098	0	34572	
6099	0	35460	
6100	0	36304	
6101	0	35944	
6102	0	35796	
6103	0	35541	
6104	0	35896	
6105	0	33382	
6106	0	27684	
6107	0	24596	
6108	0	25362	
6109	0	27564	
6110	0	30276	
6111	0	33212	
6112	0	34388	
6113	0	34561	
6114	0	35500	
6115	0	36700	
6116	0	37472	
6117	0	36956	
6118	0	35354	
6119	0	33613	
6120	0	29224	
6121	0	28088	
6122	0	27385	
6123	0	28936	
6124	0	30244	
6125	0	29761	
6126	0	29661	
6127	0	30152	
6128	0	32920	
6129	0	36116	
6130	0	37292	
6131	0	36492	
6132	0	36576	
6133	0	35488	
6134	0	31748	
6135	0	26256	
6136	0	24710	
6137	0	26293	
6138	0	29972	
6139	0	33741	
6140	0	37320	
6141	0	40752	
6142	0	41248	
6143	0	41128	
6144	0	40664	
6145	0	37484	
6146	0	32384	
6147	0	28888	
6148	0	28696	
6149	0	28436	
6150	0	29364	
6151	0	29720	
6152	0	28668	
6153	0	24920	
6154	0	23976	
6155	0	28816	
6156	0	31940	
6157	0	31748	
6158	0	34468	
6159	0	35428	
6160	0	37308	
6161	0	37844	
6162	0	37060	
6163	0	36684	
6164	0	36836	
6165	0	37468	
6166	0	38292	
6167	0	38924	
6168	0	38552	
6169	0	38296	
6170	0	37464	
6171	0	35104	
6172	0	32204	
6173	0	28400	
6174	0	21992	
6175	0	21119	
6176	0	23872	
6177	0	26296	
6178	0	28004	
6179	0	30408	
6180	0	33404	
6181	0	34776	
6182	0	34960	
6183	0	34112	
6184	0	32208	
6185	0	31564	
6186	0	33360	
6187	0	36376	
6188	0	37372	
6189	0	35464	
6190	0	32852	
6191	0	32620	
6192	0	34024	
6193	0	35184	
6194	0	34416	
6195	0	32508	
6196	0	31968	
6197	0	32288	
6198	0	32728	
6199	0	31941	
6200	0	31196	
6201	0	30533	
6202	0	30589	
6203	0	32404	
6204	0	31592	
6205	0	31089	
6206	0	31320	
6207	0	29324	
6208	0	28124	
6209	0	29716	
6210	0	32580	
6211	0	34968	
6212	0	35172	
6213	0	34764	
6214	0	34832	
6215	0	33356	
6216	0	33928	
6217	0	35988	
6218	0	34928	
6219	0	32944	
6220	0	33284	
6221	0	33704	
6222	0	31456	
6223	0	29028	
6224	0	31080	
6225	0	33480	
6226	0	34608	
6227	0	35796	
6228	0	35512	
6229	0	35048	
6230	0	34768	
6231	0	34896	
6232	0	33828	
6233	0	32416	
6234	0	30404	
6235	0	30196	
6236	0	32396	
6237	0	34752	
6238	0	34800	
6239	0	31392	
6240	0	29437	
6241	0	29993	
6242	0	32384	
6243	0	34112	
6244	0	35448	
6245	0	34720	
6246	0	34684	
6247	0	34384	
6248	0	34376	
6249	0	33472	
6250	0	31184	
6251	0	30852	
6252	0	31261	
6253	0	31944	
6254	0	32320	
6255	0	32856	
6256	0	32734	
6257	0	31924	
6258	0	31252	
6259	0	30976	
6260	0	30308	
6261	0	29253	
6262	0	29388	
6263	0	29928	
6264	0	32416	
6265	0	33864	
6266	0	33924	
6267	0	33480	
6268	0	32128	
6269	0	32918	
6270	0	34420	
6271	0	35384	
6272	0	35804	
6273	0	36252	
6274	0	35512	
6275	0	35164	
6276	0	34536	
6277	0	33964	
6278	0	33390	
6279	0	33120	
6280	0	32876	
6281	0	32776	
6282	0	31536	
6283	0	30568	
6284	0	30472	
6285	0	30572	
6286	0	30676	
6287	0	31052	
6288	0	31113	
6289	0	31470	
6290	0	30976	
6291	0	29844	
6292	0	29284	
6293	0	28468	
6294	0	28024	
6295	0	29904	
6296	0	31876	
6297	0	33700	
6298	0	35676	
6299	0	37788	
6300	0	38944	
6301	0	39776	
6302	0	39644	
6303	0	38632	
6304	0	36896	
6305	0	35220	
6306	0	33500	
6307	0	32456	
6308	0	32284	
6309	0	31976	
6310	0	30448	
6311	0	28133	
6312	0	27554	
6313	0	27824	
6314	0	28784	
6315	0	29216	
6316	0	30040	
6317	0	31800	
6318	0	33608	
6319	0	35096	
6320	0	36120	
6321	0	36887	
6322	0	38316	
6323	0	36752	
6324	0	35708	
6325	0	35240	
6326	0	34764	
6327	0	33076	
6328	0	31564	
6329	0	31586	
6330	0	30920	
6331	0	29844	
6332	0	29136	
6333	0	28352	
6334	0	29216	
6335	0	30764	
6336	0	31892	
6337	0	32140	
6338	0	32608	
6339	0	33431	
6340	0	33732	
6341	0	33836	
6342	0	33726	
6343	0	34420	
6344	0	35088	
6345	0	34408	
6346	0	34440	
6347	0	35004	
6348	0	34344	
6349	0	32840	
6350	0	32528	
6351	0	32640	
6352	0	32900	
6353	0	33448	
6354	0	33146	
6355	0	32792	
6356	0	32080	
6357	0	31221	
6358	0	31192	
6359	0	31348	
6360	0	31936	
6361	0	32588	
6362	0	32753	
6363	0	32404	
6364	0	32436	
6365	0	32128	
6366	0	31716	
6367	0	31368	
6368	0	31500	
6369	0	31836	
6370	0	32294	
6371	0	32824	
6372	0	33064	
6373	0	32996	
6374	0	32860	
6375	0	32808	
6376	0	33100	
6377	0	33288	
6378	0	33604	
6379	0	33620	
6380	0	33800	
6381	0	33228	
6382	0	32975	
6383	0	33008	
6384	0	32984	
6385	0	32796	
6386	0	32632	
6387	0	32764	
6388	0	32812	
6389	0	32614	
6390	0	32672	
6391	0	33000	
6392	0	33188	
6393	0	33028	
6394	0	32876	
6395	0	32572	
6396	0	31844	
6397	0	32012	
6398	0	32328	
6399	0	32512	
6400	0	32640	
6401	0	33108	
6402	0	33468	
6403	0	33504	
6404	0	33444	
6405	0	33148	
6406	0	32734	
6407	0	32468	
6408	0	32388	
6409	0	32216	
6410	0	32620	
6411	0	32932	
6412	0	33041	
6413	0	33084	
6414	0	32972	
6415	0	32654	
6416	0	32740	
6417	0	32800	
6418	0	32776	
6419	0	32750	
6420	0	32280	
6421	0	32548	
6422	0	33024	
6423	0	33480	
6424	0	33876	
6425	0	33700	
6426	0	33472	
6427	0	33260	
6428	0	33550	
6429	0	33288	
6430	0	32741	
6431	0	32620	
6432	0	32448	
6433	0	32084	
6434	0	32120	
6435	0	32366	
6436	0	32452	
6437	0	32360	
6438	0	32680	
6439	0	33104	
6440	0	32917	
6441	0	32436	
6442	0	31920	
6443	0	31780	
6444	0	32448	
6445	0	32630	
6446	0	32472	
6447	0	32233	
6448	0	32384	
6449	0	32774	
6450	0	33168	
6451	0	33536	
6452	0	32920	
6453	0	32580	
6454	0	33328	
6455	0	33228	
6456	0	32388	
6457	0	32484	
6458	0	32372	
6459	0	32652	
6460	0	32924	
6461	0	33160	
6462	0	33108	
6463	0	32708	
6464	0	32692	
6465	0	32472	
6466	0	32098	
6467	0	31744	
6468	0	31844	
6469	0	32028	
6470	0	32445	
6471	0	32916	
6472	0	33508	
6473	0	34056	
6474	0	34592	
6475	0	34561	
6476	0	34268	
6477	0	33932	
6478	0	33460	
6479	0	33060	
6480	0	32960	
6481	0	32764	
6482	0	32428	
6483	0	32252	
6484	0	32481	
6485	0	32302	
6486	0	32332	
6487	0	32184	
6488	0	31996	
6489	0	31881	
6490	0	31776	
6491	0	32057	
6492	0	32396	
6493	0	32540	
6494	0	32548	
6495	0	32884	
6496	0	32976	
6497	0	33008	
6498	0	33168	
6499	0	33230	
6500	0	33204	
6501	0	33216	
6502	0	33188	
6503	0	33100	
6504	0	33180	
6505	0	32936	
6506	0	32732	
6507	0	32736	
6508	0	32716	
6509	0	32540	
6510	0	32452	
6511	0	32616	
6512	0	32896	
6513	0	32948	
6514	0	32960	
6515	0	32808	
6516	0	32552	
6517	0	32552	
6518	0	32672	
6519	0	32732	
6520	0	32704	
6521	0	32592	
6522	0	32600	
6523	0	32824	
6524	0	32932	
6525	0	32904	
6526	0	32992	
6527	0	32836	
6528	0	32496	
6529	0	32212	
6530	0	31884	
6531	0	32040	
6532	0	32476	
6533	0	32876	
6534	0	33124	
6535	0	33208	
6536	0	33217	
6537	0	33140	
6538	0	33132	
6539	0	33164	
6540	0	33444	
6541	0	33636	
6542	0	33700	
6543	0	33508	
6544	0	33144	
6545	0	32688	
6546	0	32272	
6547	0	32172	
6548	0	32272	
6549	0	31960	
6550	0	31864	
6551	0	32224	
6552	0	32644	
6553	0	32768	
6554	0	32614	
6555	0	32616	
6556	0	32792	
6557	0	32801	
6558	0	32700	
6559	0	32953	
6560	0	33357	
6561	0	33237	
6562	0	32912	
6563	0	32624	
6564	0	32856	
6565	0	32712	
6566	0	32526	
6567	0	32492	
6568	0	32560	
6569	0	32828	
6570	0	32576	
6571	0	32746	
6572	0	32812	
6573	0	32588	
6574	0	32836	
6575	0	32932	
6576	0	33110	
6577	0	32964	
6578	0	32800	
6579	0	32840	
6580	0	32872	
6581	0	32964	
6582	0	32920	
6583	0	32868	
6584	0	33020	
6585	0	32824	
6586	0	32800	
6587	0	32724	
6588	0	32704	
6589	0	32720	
6590	0	32484	
6591	0	32724	
6592	0	32708	
6593	0	32672	
6594	0	32888	
6595	0	32932	
6596	0	32924	
6597	0	32966	
6598	0	33028	
6599	0	32904	
6600	0	32824	
6601	0	32868	
6602	0	32724	
6603	0	32628	
6604	0	32848	
6605	0	32492	
6606	0	32328	
6607	0	32512	
6608	0	32576	
6609	0	32688	
6610	0	32648	
6611	0	32732	
6612	0	32912	
6613	0	32896	
6614	0	32904	
6615	0	32864	
6616	0	32877	
6617	0	32880	
6618	0	32720	
6619	0	32708	
6620	0	32844	
6621	0	32876	
6622	0	32816	
6623	0	32877	
6624	0	32853	
6625	0	32544	
6626	0	32388	
6627	0	32464	
6628	0	32756	
6629	0	33729	
6630	0	33472	
6631	0	32884	
6632	0	32556	
6633	0	32484	
6634	0	32534	
6635	0	32460	
6636	0	32788	
6637	0	32729	
6638	0	32576	
6639	0	32608	
6640	0	32600	
6641	0	33100	
6642	0	33453	
6643	0	32948	
6644	0	32706	
6645	0	32684	
6646	0	32572	
6647	0	32572	
6648	0	32768	
6649	0	32976	
6650	0	32616	
6651	0	32644	
6652	0	32676	
6653	0	32652	
6654	0	32860	
6655	0	32664	
6656	0	32705	
6657	0	32772	
6658	0	32812	
6659	0	32796	
6660	0	32909	
6661	0	33124	
6662	0	33084	
6663	0	33016	
6664	0	32952	
6665	0	32716	
6666	0	32636	
6667	0	32556	
6668	0	32448	
6669	0	32472	
6670	0	32356	
6671	0	32628	
6672	0	32768	
6673	0	32756	
6674	0	32956	
6675	0	32912	
6676	0	32856	
6677	0	32900	
6678	0	32976	
6679	0	32760	
6680	0	32836	
6681	0	32788	
6682	0	32750	
6683	0	32878	
6684	0	32992	
6685	0	32844	
6686	0	33001	
6687	0	32800	
6688	0	32764	
6689	0	32733	
6690	0	32616	
6691	0	32909	
6692	0	32862	
6693	0	32660	
6694	0	32880	
6695	0	32752	
6696	0	32768	
6697	0	32672	
6698	0	32693	
6699	0	32644	
6700	0	32608	
6701	0	32768	
6702	0	32820	
6703	0	33085	
6704	0	33088	
6705	0	32732	
6706	0	32768	
6707	0	32660	
6708	0	32528	
6709	0	32844	
6710	0	32862	
6711	0	32720	
6712	0	32628	
6713	0	32372	
6714	0	32713	
6715	0	32676	
6716	0	32652	
6717	0	32833	
6718	0	32908	
6719	0	32964	
6720	0	32932	
6721	0	33077	
6722	0	32820	
6723	0	33024	
6724	0	33024	
6725	0	32621	
6726	0	32520	
6727	0	32956	
6728	0	33140	
6729	0	32636	
6730	0	32176	
6731	0	32450	
6732	0	32704	
6733	0	32576	
6734	0	32964	
6735	0	33209	
6736	0	32740	
6737	0	32214	
6738	0	32180	
6739	0	32608	
6740	0	33149	
6741	0	33308	
6742	0	33092	
6743	0	33182	
6744	0	33008	
6745	0	32752	
6746	0	32772	
6747	0	32680	
6748	0	32608	
6749	0	32548	
6750	0	32556	
6751	0	32792	
6752	0	32800	
6753	0	32740	
6754	0	32908	
6755	0	32888	
6756	0	32932	
6757	0	32912	
6758	0	32820	
6759	0	32750	
6760	0	32688	
6761	0	32664	
6762	0	32752	
6763	0	32961	
6764	0	33092	
6765	0	32856	
6766	0	32720	
6767	0	32616	
6768	0	32644	
6769	0	32584	
6770	0	32536	
6771	0	32684	
6772	0	32764	
6773	0	32800	
6774	0	33077	
6775	0	32940	
6776	0	32912	
6777	0	32861	
6778	0	32824	
6779	0	32884	
6780	0	32904	
6781	0	32908	
6782	0	32812	
6783	0	32656	
6784	0	32788	
6785	0	32620	
6786	0	32676	
6787	0	32704	
6788	0	32672	
6789	0	32708	
6790	0	32696	
6791	0	32941	
6792	0	32708	
6793	0	32716	
6794	0	32860	
6795	0	32680	
6796	0	32588	
6797	0	32671	
6798	0	33104	
6799	0	33212	
6800	0	32896	
6801	0	32768	
6802	0	32872	
6803	0	33052	
6804	0	32860	
6805	0	32688	
6806	0	32364	
6807	0	32201	
6808	0	32212	
6809	0	32784	
6810	0	32900	
6811	0	32864	
6812	0	32732	
6813	0	32596	
6814	0	32960	
6815	0	33092	
6816	0	32966	
6817	0	32812	
6818	0	32792	
6819	0	32612	
6820	0	33020	
6821	0	33172	
6822	0	32976	
6823	0	32968	
6824	0	32812	
6825	0	32692	
6826	0	32653	
6827	0	32744	
6828	0	32740	
6829	0	32512	
6830	0	32332	
6831	0	32565	
6832	0	32664	
6833	0	32844	
6834	0	33216	
6835	0	33130	
6836	0	32559	
6837	0	32684	
6838	0	32842	
6839	0	32772	
6840	0	32720	
6841	0	32746	
6842	0	32904	
6843	0	33092	
6844	0	32912	
6845	0	32492	
6846	0	32620	
6847	0	32624	
6848	0	32608	
6849	0	32532	
6850	0	32568	
6851	0	32824	
6852	0	32936	
6853	0	32948	
6854	0	33048	
6855	0	33024	
6856	0	32932	
6857	0	32893	
6858	0	32812	
6859	0	32894	
6860	0	32824	
6861	0	32748	
6862	0	32832	
6863	0	32796	
6864	0	32648	
6865	0	32668	
6866	0	32756	
6867	0	32872	
6868	0	32984	
6869	0	33028	
6870	0	32556	
6871	0	32422	
6872	0	32384	
6873	0	32640	
6874	0	32760	
6875	0	32948	
6876	0	33140	
6877	0	32961	
6878	0	32768	
6879	0	32568	
6880	0	32468	
6881	0	32804	
6882	0	32964	
6883	0	33068	
6884	0	32876	
6885	0	32902	
6886	0	32951	
6887	0	32776	
6888	0	32708	
6889	0	32372	
6890	0	32528	
6891	0	32889	
6892	0	32837	
6893	0	32604	
6894	0	32712	
6895	0	32920	
6896	0	33064	
6897	0	32784	
6898	0	32588	
6899	0	32704	
6900	0	32940	
6901	0	32940	
6902	0	32656	
6903	0	32884	
6904	0	32927	
6905	0	32816	
6906	0	32752	
6907	0	32620	
6908	0	32724	
6909	0	32588	
6910	0	32613	
6911	0	32688	
6912	0	32744	
6913	0	32824	
6914	0	32880	
6915	0	32824	
6916	0	32868	
6917	0	32768	
6918	0	32852	
6919	0	32828	
6920	0	32812	
6921	0	32884	
6922	0	32892	
6923	0	33012	
6924	0	32814	
6925	0	32622	
6926	0	32644	
6927	0	32636	
6928	0	32657	
6929	0	32540	
6930	0	32680	
6931	0	32764	
6932	0	32620	
6933	0	32748	
6934	0	33048	
6935	0	33113	
6936	0	32826	
6937	0	32669	
6938	0	32932	
6939	0	32989	
6940	0	32904	
6941	0	32836	
6942	0	32744	
6943	0	32872	
6944	0	32836	
6945	0	32596	
6946	0	32728	
6947	0	32748	
6948	0	32687	
6949	0	32340	
6950	0	32332	
6951	0	32596	
6952	0	32736	
6953	0	32828	
6954	0	32870	
6955	0	33192	
6956	0	33176	
6957	0	32748	
6958	0	32644	
6959	0	32744	
6960	0	32972	
6961	0	32868	
6962	0	32808	
6963	0	32888	
6964	0	32876	
6965	0	32968	
6966	0	33044	
6967	0	32984	
6968	0	32604	
6969	0	32176	
6970	0	32356	
6971	0	32804	
6972	0	32864	
6973	0	32760	
6974	0	32736	
6975	0	32820	
6976	0	32760	
6977	0	32736	
6978	0	32768	
6979	0	32748	
6980	0	32772	
6981	0	32768	
6982	0	32756	
6983	0	32992	
6984	0	32872	
6985	0	32992	
6986	0	32852	
6987	0	32820	
6988	0	32784	
6989	0	32504	
6990	0	32384	
6991	0	32396	
6992	0	32757	
6993	0	33036	
6994	0	32944	
6995	0	32940	
6996	0	32926	
6997	0	32968	
6998	0	32840	
6999	0	32716	
7000	0	32858	
7001	0	32888	
7002	0	32909	
7003	0	32900	
7004	0	32834	
7005	0	32729	
7006	0	32704	
7007	0	32704	
7008	0	32652	
7009	0	32397	
7010	0	32554	
7011	0	32676	
7012	0	32644	
7013	0	32724	
7014	0	32844	
7015	0	32860	
7016	0	32886	
7017	0	32880	
7018	0	32908	
7019	0	32884	
7020	0	33028	
7021	0	33056	
7022	0	32764	
7023	0	32768	
7024	0	32620	
7025	0	32708	
7026	0	32960	
7027	0	33052	
7028	0	32856	
7029	0	32372	
7030	0	32320	
7031	0	32413	
7032	0	32544	
7033	0	32952	
7034	0	32964	
7035	0	32848	
7036	0	32920	
7037	0	32805	
7038	0	32700	
7039	0	32616	
7040	0	32776	
7041	0	32901	
7042	0	33050	
7043	0	33174	
7044	0	32800	
7045	0	32696	
7046	0	32668	
7047	0	32704	
7048	0	32688	
7049	0	32416	
7050	0	32580	
7051	0	32728	
7052	0	32766	
7053	0	32904	
7054	0	33008	
7055	0	32968	
7056	0	32856	
7057	0	32992	
7058	0	32756	
7059	0	32880	
7060	0	33180	
7061	0	33092	
7062	0	32996	
7063	0	32790	
7064	0	32604	
7065	0	32416	
7066	0	32036	
7067	0	32244	
7068	0	32581	
7069	0	32596	
7070	0	32932	
7071	0	32944	
7072	0	32656	
7073	0	32892	
7074	0	32868	
7075	0	32928	
7076	0	32852	
7077	0	32981	
7078	0	32872	
7079	0	32876	
7080	0	32780	
7081	0	32784	
7082	0	32884	
7083	0	32968	
7084	0	32801	
7085	0	32868	
7086	0	32812	
7087	0	32648	
7088	0	32644	
7089	0	32432	
7090	0	32576	
7091	0	32700	
7092	0	32662	
7093	0	32836	
7094	0	32840	
7095	0	32944	
7096	0	32972	
7097	0	32964	
7098	0	32916	
7099	0	32948	
7100	0	32956	
7101	0	32664	
7102	0	32636	
7103	0	32840	
7104	0	32637	
7105	0	32700	
7106	0	32580	
7107	0	32660	
7108	0	32864	
7109	0	32696	
7110	0	32604	
7111	0	32774	
7112	0	32676	
7113	0	32908	
7114	0	32820	
7115	0	32826	
7116	0	32820	
7117	0	32988	
7118	0	32956	
7119	0	32912	
7120	0	32748	
7121	0	32608	
7122	0	32816	
7123	0	32941	
7124	0	33068	
7125	0	32845	
7126	0	32688	
7127	0	32668	
7128	0	32528	
7129	0	32592	
7130	0	32676	
7131	0	32636	
7132	0	32668	
7133	0	32688	
7134	0	32768	
7135	0	32684	
7136	0	32756	
7137	0	33044	
7138	0	32924	
7139	0	32896	
7140	0	32852	
7141	0	32744	
7142	0	32816	
7143	0	32932	
7144	0	32844	
7145	0	32669	
7146	0	32728	
7147	0	32632	
7148	0	32537	
7149	0	32424	
7150	0	32556	
7151	0	32704	
7152	0	32700	
7153	0	33088	
7154	0	32904	
7155	0	32744	
7156	0	32805	
7157	0	32852	
7158	0	32888	
7159	0	32956	
7160	0	32892	
7161	0	32748	
7162	0	32788	
7163	0	33020	
7164	0	32840	
7165	0	32736	
7166	0	32654	
7167	0	32620	
7168	0	32473	
7169	0	32384	
7170	0	32607	
7171	0	32836	
7172	0	32712	
7173	0	33004	
7174	0	33024	
7175	0	32988	
7176	0	32884	
7177	0	32864	
7178	0	32904	
7179	0	32824	
7180	0	32860	
7181	0	32765	
7182	0	32820	
7183	0	32780	
7184	0	32788	
7185	0	32736	
7186	0	32676	
7187	0	33000	
7188	0	32940	
7189	0	32440	
7190	0	32604	
7191	0	32649	
7192	0	32892	
7193	0	32981	
7194	0	32788	
7195	0	32796	
7196	0	32756	
7197	0	32764	
7198	0	32868	
7199	0	32872	
7200	0	32816	
7201	0	32844	
7202	0	32784	
7203	0	33032	
7204	0	32788	
7205	0	32608	
7206	0	32468	
7207	0	32588	
7208	0	32648	
7209	0	32580	
7210	0	32644	
7211	0	32832	
7212	0	32728	
7213	0	32900	
7214	0	33068	
7215	0	32820	
7216	0	32692	
7217	0	32776	
7218	0	32664	
7219	0	32680	
7220	0	32813	
7221	0	32880	
7222	0	33036	
7223	0	32952	
7224	0	32660	
7225	0	32812	
7226	0	32848	
7227	0	33064	
7228	0	32896	
7229	0	32300	
7230	0	32400	
7231	0	32628	
7232	0	32724	
7233	0	33004	
7234	0	32990	
7235	0	32964	
7236	0	32884	
7237	0	32676	
7238	0	32688	
7239	0	32824	
7240	0	33008	
7241	0	32908	
7242	0	32832	
7243	0	32896	
7244	0	32720	
7245	0	32568	
7246	0	32769	
7247	0	32740	
7248	0	32686	
7249	0	32417	
7250	0	32592	
7251	0	32628	
7252	0	32700	
7253	0	32892	
7254	0	33048	
7255	0	33044	
7256	0	32904	
7257	0	32908	
7258	0	33080	
7259	0	32992	
7260	0	32980	
7261	0	32704	
7262	0	32852	
7263	0	32952	
7264	0	32712	
7265	0	32556	
7266	0	32496	
7267	0	32484	
7268	0	32468	
7269	0	32424	
7270	0	32844	
7271	0	33064	
7272	0	32800	
7273	0	32612	
7274	0	32480	
7275	0	32616	
7276	0	32876	
7277	0	33000	
7278	0	32976	
7279	0	33000	
7280	0	32916	
7281	0	32832	
7282	0	32920	
7283	0	33020	
7284	0	32936	
7285	0	32988	
7286	0	33000	
7287	0	32456	
7288	0	32160	
7289	0	32220	
7290	0	32480	
7291	0	32580	
7292	0	32502	
7293	0	32900	
7294	0	33048	
7295	0	33137	
7296	0	33084	
7297	0	33064	
7298	0	33044	
7299	0	32924	
7300	0	32916	
7301	0	32720	
7302	0	32920	
7303	0	32888	
7304	0	32716	
7305	0	32740	
7306	0	32633	
7307	0	32613	
7308	0	32500	
7309	0	32336	
7310	0	32604	
7311	0	32788	
7312	0	32780	
7313	0	32916	
7314	0	32836	
7315	0	32932	
7316	0	32836	
7317	0	32908	
7318	0	32988	
7319	0	32848	
7320	0	32804	
7321	0	32804	
7322	0	32881	
7323	0	32820	
7324	0	32616	
7325	0	32636	
7326	0	32604	
7327	0	32672	
7328	0	32712	
7329	0	32576	
7330	0	32740	
7331	0	32848	
7332	0	32901	
7333	0	33036	
7334	0	32837	
7335	0	32780	
7336	0	32712	
7337	0	32896	
7338	0	32828	
7339	0	32840	
7340	0	33084	
7341	0	32965	
7342	0	32912	
7343	0	32888	
7344	0	32644	
7345	0	32644	
7346	0	32780	
7347	0	32724	
7348	0	32468	
7349	0	32348	
7350	0	32572	
7351	0	32704	
7352	0	32838	
7353	0	32824	
7354	0	32892	
7355	0	32896	
7356	0	33000	
7357	0	32984	
7358	0	32980	
7359	0	32888	
7360	0	33108	
7361	0	32992	
7362	0	32952	
7363	0	32924	
7364	0	32705	
7365	0	32664	
7366	0	32536	
7367	0	32408	
7368	0	32416	
7369	0	32584	
7370	0	32528	
7371	0	32604	
7372	0	32692	
7373	0	32879	
7374	0	32884	
7375	0	32785	
7376	0	32664	
7377	0	32700	
7378	0	32852	
7379	0	32856	
7380	0	32877	
7381	0	32904	
7382	0	33036	
7383	0	32933	
7384	0	32740	
7385	0	32716	
7386	0	32904	
7387	0	32716	
7388	0	32660	
7389	0	32556	
7390	0	32600	
7391	0	32934	
7392	0	32764	
7393	0	32796	
7394	0	32961	
7395	0	33136	
7396	0	33176	
7397	0	32976	
7398	0	32436	
7399	0	32536	
7400	0	32664	
7401	0	32852	
7402	0	33076	
7403	0	32700	
7404	0	32608	
7405	0	32532	
7406	0	32696	
7407	0	32892	
7408	0	32592	
7409	0	32404	
7410	0	32596	
7411	0	32764	
7412	0	32732	
7413	0	32774	
7414	0	32852	
7415	0	32868	
7416	0	33068	
7417	0	33004	
7418	0	32944	
7419	0	32876	
7420	0	32844	
7421	0	32789	
7422	0	32949	
7423	0	32792	
7424	0	32668	
7425	0	32720	
7426	0	32704	
7427	0	32708	
7428	0	32504	
7429	0	32628	
7430	0	32760	
7431	0	32728	
7432	0	32888	
7433	0	32854	
7434	0	32990	
7435	0	32824	
7436	0	32672	
7437	0	32869	
7438	0	32948	
7439	0	32900	
7440	0	32896	
7441	0	32828	
7442	0	32932	
7443	0	32748	
7444	0	32716	
7445	0	32796	
7446	0	32668	
7447	0	32576	
7448	0	32448	
7449	0	32452	
7450	0	32620	
7451	0	32696	
7452	0	32804	
7453	0	32896	
7454	0	33084	
7455	0	33104	
7456	0	32895	
7457	0	32764	
7458	0	32774	
7459	0	32805	
7460	0	32788	
7461	0	32772	
7462	0	32880	
7463	0	32776	
7464	0	33032	
7465	0	33133	
7466	0	32788	
7467	0	32600	
7468	0	32172	
7469	0	32296	
7470	0	32592	
7471	0	32860	
7472	0	32824	
7473	0	32688	
7474	0	32741	
7475	0	32856	
7476	0	32756	
7477	0	32808	
7478	0	32736	
7479	0	32926	
7480	0	32952	
7481	0	32948	
7482	0	33056	
7483	0	32820	
7484	0	33044	
7485	0	32968	
7486	0	32492	
7487	0	32580	
7488	0	32576	
7489	0	32572	
7490	0	32631	
7491	0	32540	
7492	0	32872	
7493	0	33037	
7494	0	32968	
7495	0	32848	
7496	0	32764	
7497	0	32852	
7498	0	32932	
7499	0	32844	
7500	0	32560	
7501	0	32772	
7502	0	33392	
7503	0	33064	
7504	0	32676	
7505	0	32428	
7506	0	32428	
7507	0	32622	
7508	0	32536	
7509	0	32548	
7510	0	32860	
7511	0	32772	
7512	0	32828	
7513	0	32852	
7514	0	32812	
7515	0	32842	
7516	0	32940	
7517	0	32844	
7518	0	32780	
7519	0	32964	
7520	0	33018	
7521	0	32912	
7522	0	32896	
7523	0	32748	
7524	0	32646	
7525	0	32706	
7526	0	32752	
7527	0	32808	
7528	0	32492	
7529	0	32536	
7530	0	32545	
7531	0	32724	
7532	0	32952	
7533	0	32972	
7534	0	32932	
7535	0	32890	
7536	0	32884	
7537	0	32873	
7538	0	32853	
7539	0	32924	
7540	0	32880	
7541	0	32676	
7542	0	32740	
7543	0	32684	
7544	0	32732	
7545	0	32684	
7546	0	32704	
7547	0	32928	
7548	0	32668	
7549	0	32560	
7550	0	32636	
7551	0	32640	
7552	0	32936	
7553	0	33144	
7554	0	33232	
7555	0	32928	
7556	0	32652	
7557	0	32596	
7558	0	32668	
7559	0	32864	
7560	0	32860	
7561	0	32892	
7562	0	33180	
7563	0	32804	
7564	0	32868	
7565	0	32688	
7566	0	32572	
7567	0	32804	
7568	0	32388	
7569	0	32388	
7570	0	32500	
7571	0	32462	
7572	0	32724	
7573	0	32968	
7574	0	32934	
7575	0	32904	
7576	0	32861	
7577	0	32693	
7578	0	32788	
7579	0	32772	
7580	0	32988	
7581	0	33077	
7582	0	33024	
7583	0	32788	
7584	0	32660	
7585	0	32736	
7586	0	32800	
7587	0	32804	
7588	0	32536	
7589	0	32572	
7590	0	32728	
7591	0	32816	
7592	0	32792	
7593	0	32892	
7594	0	33080	
7595	0	33100	
7596	0	32828	
7597	0	32808	
7598	0	32632	
7599	0	32632	
7600	0	32681	
7601	0	32686	
7602	0	32870	
7603	0	32788	
7604	0	32752	
7605	0	32756	
7606	0	32696	
7607	0	32744	
7608	0	32552	
7609	0	32629	
7610	0	32724	
7611	0	32672	
7612	0	32852	
7613	0	32800	
7614	0	32872	
7615	0	32900	
7616	0	32872	
7617	0	32983	
7618	0	32976	
7619	0	32904	
7620	0	32936	
7621	0	32949	
7622	0	32921	
7623	0	32576	
7624	0	32560	
7625	0	32562	
7626	0	32718	
7627	0	32856	
7628	0	32452	
7629	0	32612	
7630	0	32648	
7631	0	32596	
7632	0	32877	
7633	0	33038	
7634	0	32888	
7635	0	32820	
7636	0	32784	
7637	0	32924	
7638	0	32944	
7639	0	32824	
7640	0	32760	
7641	0	32764	
7642	0	32876	
7643	0	32778	
7644	0	32868	
7645	0	32756	
7646	0	32680	
7647	0	32749	
7648	0	32552	
7649	0	32550	
7650	0	32616	
7651	0	32662	
7652	0	32876	
7653	0	32900	
7654	0	32852	
7655	0	32804	
7656	0	32784	
7657	0	32988	
7658	0	32785	
7659	0	32748	
7660	0	32816	
7661	0	33012	
7662	0	32980	
7663	0	32572	
7664	0	32588	
7665	0	32592	
7666	0	32604	
7667	0	32744	
7668	0	32601	
7669	0	32780	
7670	0	32945	
7671	0	32688	
7672	0	32860	
7673	0	32864	
7674	0	32904	
7675	0	33036	
7676	0	32968	
7677	0	33005	
7678	0	32797	
7679	0	32732	
7680	0	32613	
7681	0	32572	
7682	0	32800	
7683	0	32880	
7684	0	32728	
7685	0	32556	
7686	0	32636	
7687	0	32488	
7688	0	32280	
7689	0	32768	
7690	0	32800	
7691	0	32720	
7692	0	33020	
7693	0	32865	
7694	0	32748	
7695	0	32796	
7696	0	32912	
7697	0	33004	
7698	0	32936	
7699	0	33064	
7700	0	32976	
7701	0	32936	
7702	0	32964	
7703	0	32758	
7704	0	32664	
7705	0	32664	
7706	0	32740	
7707	0	32688	
7708	0	32428	
7709	0	32572	
7710	0	32742	
7711	0	32704	
7712	0	32700	
7713	0	32916	
7714	0	32890	
7715	0	32812	
7716	0	32769	
7717	0	32837	
7718	0	32903	
7719	0	32764	
7720	0	32748	
7721	0	32892	
7722	0	32948	
7723	0	32868	
7724	0	32736	
7725	0	32600	
7726	0	32724	
7727	0	32700	
7728	0	32384	
7729	0	32496	
7730	0	32709	
7731	0	32780	
7732	0	32976	
7733	0	32948	
7734	0	32992	
7735	0	32924	
7736	0	32892	
7737	0	32840	
7738	0	32844	
7739	0	33044	
7740	0	32812	
7741	0	32856	
7742	0	32920	
7743	0	32713	
7744	0	32644	
7745	0	32796	
7746	0	32808	
7747	0	32748	
7748	0	32349	
7749	0	32540	
7750	0	32588	
7751	0	32564	
7752	0	32756	
7753	0	32792	
7754	0	32965	
7755	0	32948	
7756	0	32888	
7757	0	32716	
7758	0	32820	
7759	0	32866	
7760	0	32804	
7761	0	32748	
7762	0	32784	
7763	0	32656	
7764	0	32680	
7765	0	32688	
7766	0	32664	
7767	0	32636	
7768	0	32528	
7769	0	32670	
7770	0	32870	
7771	0	32832	
7772	0	33138	
7773	0	33152	
7774	0	33052	
7775	0	32896	
7776	0	32846	
7777	0	32704	
7778	0	32773	
7779	0	32864	
7780	0	32845	
7781	0	33040	
7782	0	33096	
7783	0	32900	
7784	0	32700	
7785	0	32600	
7786	0	32640	
7787	0	32652	
7788	0	32480	
7789	0	32500	
7790	0	32716	
7791	0	32956	
7792	0	32957	
7793	0	32952	
7794	0	32940	
7795	0	32912	
7796	0	32941	
7797	0	32828	
7798	0	32644	
7799	0	32714	
7800	0	32684	
7801	0	32856	
7802	0	32924	
7803	0	32768	
7804	0	32728	
7805	0	32644	
7806	0	32692	
7807	0	32632	
7808	0	32524	
7809	0	32608	
7810	0	32732	
7811	0	32724	
7812	0	32868	
7813	0	32877	
7814	0	32832	
7815	0	33004	
7816	0	32968	
7817	0	32762	
7818	0	32808	
7819	0	32812	
7820	0	32728	
7821	0	32813	
7822	0	32848	
7823	0	32784	
7824	0	32718	
7825	0	32680	
7826	0	32768	
7827	0	32644	
7828	0	32492	
7829	0	32668	
7830	0	32796	
7831	0	32856	
7832	0	32925	
7833	0	32902	
7834	0	32820	
7835	0	32932	
7836	0	32848	
7837	0	32616	
7838	0	32792	
7839	0	32940	
7840	0	32937	
7841	0	33004	
7842	0	32788	
7843	0	32580	
7844	0	32644	
7845	0	32452	
7846	0	32668	
7847	0	32572	
7848	0	32376	
7849	0	32708	
7850	0	32916	
7851	0	32932	
7852	0	33032	
7853	0	32924	
7854	0	32616	
7855	0	32772	
7856	0	32848	
7857	0	32849	
7858	0	32964	
7859	0	32944	
7860	0	32784	
7861	0	32992	
7862	0	32892	
7863	0	32772	
7864	0	32828	
7865	0	32816	
7866	0	32700	
7867	0	32537	
7868	0	32520	
7869	0	32648	
7870	0	32644	
7871	0	32824	
7872	0	32901	
7873	0	32800	
7874	0	32864	
7875	0	32766	
7876	0	32840	
7877	0	32984	
7878	0	33000	
7879	0	32920	
7880	0	32864	
7881	0	32904	
7882	0	32864	
7883	0	32757	
7884	0	32588	
7885	0	32568	
7886	0	32620	
7887	0	32516	
7888	0	32548	
7889	0	32742	
7890	0	32857	
7891	0	32884	
7892	0	32893	
7893	0	32820	
7894	0	32784	
7895	0	32732	
7896	0	32748	
7897	0	32732	
7898	0	32880	
7899	0	32708	
7900	0	32872	
7901	0	33096	
7902	0	33097	
7903	0	33168	
7904	0	32936	
7905	0	32688	
7906	0	32631	
7907	0	32406	
7908	0	32548	
7909	0	32656	
7910	0	32700	
7911	0	32645	
7912	0	32765	
7913	0	32857	
7914	0	32948	
7915	0	32972	
7916	0	32884	
7917	0	32764	
7918	0	32804	
7919	0	32748	
7920	0	32788	
7921	0	32846	
7922	0	32804	
7923	0	32692	
7924	0	32636	
7925	0	32828	
7926	0	32782	
7927	0	32556	
7928	0	32608	
7929	0	32628	
7930	0	32708	
7931	0	32936	
7932	0	32992	
7933	0	32964	
7934	0	32984	
7935	0	32892	
7936	0	32904	
7937	0	32857	
7938	0	32869	
7939	0	32868	
7940	0	32760	
7941	0	32920	
7942	0	32868	
7943	0	32800	
7944	0	32676	
7945	0	32648	
7946	0	32568	
7947	0	32404	
7948	0	32440	
7949	0	32652	
7950	0	32844	
7951	0	32812	
7952	0	32844	
7953	0	32976	
7954	0	32944	
7955	0	32844	
7956	0	32708	
7957	0	32728	
7958	0	32796	
7959	0	32804	
7960	0	32812	
7961	0	33024	
7962	0	32836	
7963	0	32672	
7964	0	32704	
7965	0	32588	
7966	0	32660	
7967	0	32568	
7968	0	32690	
7969	0	32752	
7970	0	32788	
7971	0	32876	
7972	0	32920	
7973	0	32876	
7974	0	32840	
7975	0	32836	
7976	0	32909	
7977	0	33024	
7978	0	32940	
7979	0	32924	
7980	0	32888	
7981	0	32940	
7982	0	32612	
7983	0	32728	
7984	0	32740	
7985	0	32632	
7986	0	32568	
7987	0	32224	
7988	0	32356	
7989	0	32508	
7990	0	32721	
7991	0	32857	
7992	0	32828	
7993	0	32837	
7994	0	32872	
7995	0	32752	
7996	0	32844	
7997	0	33044	
7998	0	33004	
7999	0	32908	
8000	0	32896	
8001	0	33016	
8002	0	32776	
8003	0	32852	
8004	0	32712	
8005	0	32596	
8006	0	32676	
8007	0	32460	
8008	0	32600	
8009	0	32752	
8010	0	32756	
8011	0	32761	
8012	0	32776	
8013	0	32720	
8014	0	32816	
8015	0	32917	
8016	0	33068	
8017	0	32900	
8018	0	32820	
8019	0	32836	
8020	0	32864	
8021	0	32964	
8022	0	32808	
8023	0	32644	
8024	0	32677	
8025	0	32624	
8026	0	32524	
8027	0	32408	
8028	0	32616	
8029	0	32804	
8030	0	32904	
8031	0	32912	
8032	0	32829	
8033	0	32860	
8034	0	32837	
8035	0	32828	
8036	0	32828	
8037	0	32928	
8038	0	32924	
8039	0	32976	
8040	0	33040	
8041	0	33080	
8042	0	32676	
8043	0	32508	
8044	0	32576	
8045	0	32660	
8046	0	32596	
8047	0	32356	
8048	0	32416	
8049	0	32676	
8050	0	32724	
8051	0	32965	
8052	0	33006	
8053	0	33112	
8054	0	32896	
8055	0	32844	
8056	0	32668	
8057	0	32848	
8058	0	33006	
8059	0	32868	
8060	0	32824	
8061	0	33012	
8062	0	32804	
8063	0	32716	
8064	0	32528	
8065	0	32484	
8066	0	32616	
8067	0	32564	
8068	0	32732	
8069	0	32740	
8070	0	32564	
8071	0	32764	
8072	0	32852	
8073	0	32976	
8074	0	32841	
8075	0	32858	
8076	0	32796	
8077	0	32724	
8078	0	32910	
8079	0	33012	
8080	0	32800	
8081	0	33032	
8082	0	32856	
8083	0	32780	
8084	0	32688	
8085	0	32592	
8086	0	32640	
8087	0	32632	
8088	0	32716	
8089	0	32704	
8090	0	32584	
8091	0	32752	
8092	0	32832	
8093	0	32960	
8094	0	32888	
8095	0	32916	
8096	0	32912	
8097	0	32872	
8098	0	32808	
8099	0	32884	
8100	0	32911	
8101	0	33060	
8102	0	32884	
8103	0	32716	
8104	0	32544	
8105	0	32572	
8106	0	32640	
8107	0	32556	
8108	0	32664	
8109	0	32663	
8110	0	32560	
8111	0	32845	
8112	0	32892	
8113	0	32720	
8114	0	32756	
8115	0	32976	
8116	0	32964	
8117	0	32980	
8118	0	32806	
8119	0	32740	
8120	0	32773	
8121	0	32988	
8122	0	32792	
8123	0	32692	
8124	0	32716	
8125	0	32591	
8126	0	32730	
8127	0	32552	
8128	0	32544	
8129	0	32696	
8130	0	32652	
8131	0	32924	
8132	0	33020	
8133	0	33000	
8134	0	32912	
8135	0	32868	
8136	0	32856	
8137	0	32797	
8138	0	32868	
8139	0	32831	
8140	0	32966	
8141	0	32896	
8142	0	32544	
8143	0	32534	
8144	0	32668	
8145	0	32632	
8146	0	32620	
8147	0	32440	
8148	0	33000	
8149	0	33120	
8150	0	32908	
8151	0	33060	
8152	0	33024	
8153	0	32796	
8154	0	32856	
8155	0	32596	
8156	0	32544	
8157	0	32732	
8158	0	32840	
8159	0	32716	
8160	0	32740	
8161	0	32844	
8162	0	32924	
8163	0	32981	
8164	0	32864	
8165	0	32732	
8166	0	32656	
8167	0	32436	
8168	0	32545	
8169	0	32592	
8170	0	32568	
8171	0	32884	
8172	0	32828	
8173	0	32940	
8174	0	32932	
8175	0	32892	
8176	0	32916	
8177	0	32844	
8178	0	32864	
8179	0	32896	
8180	0	32976	
8181	0	32881	
8182	0	32716	
8183	0	32852	
8184	0	32808	
8185	0	32828	
8186	0	32544	
8187	0	32320	
8188	0	32512	
8189	0	32610	
8190	0	32489	
8191	0	32862	
8192	0	33068	
8193	0	32952	
8194	0	32936	
8195	0	32880	
8196	0	32889	
8197	0	32808	
8198	0	32878	
8199	0	32848	
8200	0	32964	
8201	0	32956	
8202	0	32753	
8203	0	32748	
8204	0	32660	
8205	0	32608	
8206	0	32632	
8207	0	32390	
8208	0	32704	
8209	0	32924	
8210	0	32812	
8211	0	32924	
8212	0	32898	
8213	0	32872	
8214	0	32766	
8215	0	32844	
8216	0	32784	
8217	0	32760	
8218	0	32889	
8219	0	32768	
8220	0	32901	
8221	0	32936	
8222	0	32762	
8223	0	32616	
8224	0	32686	
8225	0	32629	
8226	0	32600	
8227	0	32544	
8228	0	32672	
8229	0	32792	
8230	0	32692	
8231	0	32865	
8232	0	32868	
8233	0	32924	
8234	0	33092	
8235	0	32988	
8236	0	33000	
8237	0	32741	
8238	0	32708	
8239	0	32672	
8240	0	32720	
8241	0	32880	
8242	0	32672	
8243	0	32560	
8244	0	32604	
8245	0	32741	
8246	0	32608	
8247	0	32692	
8248	0	32792	
8249	0	32740	
8250	0	32720	
8251	0	32964	
8252	0	32890	
8253	0	32776	
8254	0	32880	
8255	0	32932	
8256	0	32796	
8257	0	32774	
8258	0	32836	
8259	0	32784	
8260	0	32938	
8261	0	33012	
8262	0	32793	
8263	0	32752	
8264	0	32766	
8265	0	32830	
8266	0	32724	
8267	0	32319	
8268	0	32390	
8269	0	32448	
8270	0	32456	
8271	0	32696	
8272	0	32808	
8273	0	32844	
8274	0	32784	
8275	0	32960	
8276	0	33088	
8277	0	32956	
8278	0	32972	
8279	0	32932	
8280	0	33022	
8281	0	32828	
8282	0	32600	
8283	0	32520	
8284	0	32704	
8285	0	32692	
8286	0	32576	
8287	0	32536	
8288	0	32948	
8289	0	32972	
8290	0	32972	
8291	0	33048	
8292	0	32861	
8293	0	32820	
8294	0	32868	
8295	0	32848	
8296	0	32797	
8297	0	32845	
8298	0	32800	
8299	0	32716	
8300	0	32696	
8301	0	32748	
8302	0	32656	
8303	0	32508	
8304	0	32520	
8305	0	32592	
8306	0	32620	
8307	0	32512	
8308	0	32652	
8309	0	32836	
8310	0	32856	
8311	0	32912	
8312	0	32872	
8313	0	32960	
8314	0	33005	
8315	0	32980	
8316	0	32901	
8317	0	32800	
8318	0	32724	
8319	0	32756	
8320	0	32880	
8321	0	33024	
8322	0	32820	
8323	0	32648	
8324	0	32556	
8325	0	32660	
8326	0	32540	
8327	0	32480	
8328	0	32820	
8329	0	32804	
8330	0	32762	
8331	0	33052	
8332	0	32928	
8333	0	33004	
8334	0	32924	
8335	0	32926	
8336	0	32756	
8337	0	32750	
8338	0	32776	
8339	0	32812	
8340	0	32872	
8341	0	32769	
8342	0	32696	
8343	0	32740	
8344	0	32632	
8345	0	32584	
8346	0	32476	
8347	0	32464	
8348	0	32588	
8349	0	32880	
8350	0	32964	
8351	0	33064	
8352	0	33088	
8353	0	32957	
8354	0	32917	
8355	0	33036	
8356	0	32936	
8357	0	32700	
8358	0	32636	
8359	0	32636	
8360	0	32816	
8361	0	32832	
8362	0	32760	
8363	0	32684	
8364	0	32780	
8365	0	32670	
8366	0	32540	
8367	0	32552	
8368	0	32672	
8369	0	32800	
8370	0	32784	
8371	0	32924	
8372	0	32816	
8373	0	32828	
8374	0	32766	
8375	0	32768	
8376	0	32772	
8377	0	32792	
8378	0	32842	
8379	0	32768	
8380	0	32916	
8381	0	32816	
8382	0	32736	
8383	0	32708	
8384	0	32742	
8385	0	32596	
8386	0	32592	
8387	0	32640	
8388	0	32729	
8389	0	32884	
8390	0	32924	
8391	0	32992	
8392	0	32934	
8393	0	32910	
8394	0	32864	
8395	0	32912	
8396	0	32992	
8397	0	32740	
8398	0	32780	
8399	0	32768	
8400	0	32936	
8401	0	33076	
8402	0	32934	
8403	0	32732	
8404	0	32676	
8405	0	32673	
8406	0	32612	
8407	0	32612	
8408	0	32638	
8409	0	32556	
8410	0	32580	
8411	0	32720	
8412	0	32872	
8413	0	32893	
8414	0	32868	
8415	0	32808	
8416	0	32840	
8417	0	33038	
8418	0	32968	
8419	0	32852	
8420	0	32944	
8421	0	32800	
8422	0	32572	
8423	0	32600	
8424	0	32556	
8425	0	32568	
8426	0	32596	
8427	0	32716	
8428	0	33016	
8429	0	32936	
8430	0	32729	
8431	0	32796	
8432	0	32820	
8433	0	32920	
8434	0	32884	
8435	0	32900	
8436	0	32853	
8437	0	32796	
8438	0	32709	
8439	0	32664	
8440	0	32780	
8441	0	32848	
8442	0	32862	
8443	0	32788	
8444	0	32644	
8445	0	32608	
8446	0	32487	
8447	0	32664	
8448	0	32792	
8449	0	32824	
8450	0	32944	
8451	0	32844	
8452	0	32776	
8453	0	32788	
8454	0	32776	
8455	0	32773	
8456	0	32864	
8457	0	33000	
8458	0	32924	
8459	0	32860	
8460	0	32916	
8461	0	32794	
8462	0	32612	
8463	0	32564	
8464	0	32573	
8465	0	32508	
8466	0	32376	
8467	0	32676	
8468	0	33084	
8469	0	32968	
8470	0	32988	
8471	0	33140	
8472	0	32980	
8473	0	32852	
8474	0	32808	
8475	0	32712	
8476	0	32772	
8477	0	32860	
8478	0	32844	
8479	0	32676	
8480	0	32744	
8481	0	32717	
8482	0	32696	
8483	0	32564	
8484	0	32713	
8485	0	32804	
8486	0	32446	
8487	0	32544	
8488	0	32628	
8489	0	32684	
8490	0	32904	
8491	0	33084	
8492	0	33148	
8493	0	33076	
8494	0	32933	
8495	0	32825	
8496	0	32832	
8497	0	32828	
8498	0	32760	
8499	0	32760	
8500	0	32872	
8501	0	32657	
8502	0	32800	
8503	0	32684	
8504	0	32717	
8505	0	32954	
8506	0	32796	
8507	0	32596	
8508	0	32684	
8509	0	32372	
8510	0	32496	
8511	0	32689	
8512	0	32912	
8513	0	32888	
8514	0	32832	
8515	0	32676	
8516	0	32697	
8517	0	32824	
8518	0	32852	
8519	0	32884	
8520	0	33060	
8521	0	32864	
8522	0	32804	
8523	0	32692	
8524	0	32828	
8525	0	32828	
8526	0	32552	
8527	0	32600	
8528	0	32612	
8529	0	32580	
8530	0	32876	
8531	0	33076	
8532	0	33052	
8533	0	32892	
8534	0	32724	
8535	0	32750	
8536	0	32808	
8537	0	32818	
8538	0	32884	
8539	0	32848	
8540	0	33038	
8541	0	32800	
8542	0	32732	
8543	0	32640	
8544	0	32568	
8545	0	32573	
8546	0	32301	
8547	0	32468	
8548	0	32780	
8549	0	32788	
8550	0	32876	
8551	0	32912	
8552	0	32856	
8553	0	32908	
8554	0	32844	
8555	0	32812	
8556	0	32844	
8557	0	33036	
8558	0	33116	
8559	0	32992	
8560	0	32900	
8561	0	32816	
8562	0	32680	
8563	0	32528	
8564	0	32568	
8565	0	32528	
8566	0	32416	
8567	0	32527	
8568	0	32668	
8569	0	32705	
8570	0	33148	
8571	0	33070	
8572	0	32796	
8573	0	32652	
8574	0	32692	
8575	0	32844	
8576	0	33040	
8577	0	32788	
8578	0	32776	
8579	0	33077	
8580	0	33200	
8581	0	32756	
8582	0	32564	
8583	0	32480	
8584	0	32548	
8585	0	32724	
8586	0	32612	
8587	0	32652	
8588	0	32704	
8589	0	32644	
8590	0	32937	
8591	0	32921	
8592	0	32692	
8593	0	32702	
8594	0	32816	
8595	0	32768	
8596	0	32912	
8597	0	32892	
8598	0	32876	
8599	0	33104	
8600	0	33212	
8601	0	32817	
8602	0	32456	
8603	0	32468	
8604	0	32416	
8605	0	32540	
8606	0	32484	
8607	0	32644	
8608	0	32828	
8609	0	32652	
8610	0	32848	
8611	0	32936	
8612	0	32913	
8613	0	32888	
