# OpenSignals Text File Format. Version 1
# {"00:07:80:4D:2E:9E": {"sensor": ["CUSTOM/0.5/1.0/V"], "device name": "00:07:80:4D:2E:9E", "column": ["nSeq", "DI", "CH1"], "sync interval": 2, "time": "11:50:27.185", "comments": "", "device connection": "BTH00:07:80:4D:2E:9E", "channels": [1], "keywords": "", "mode": 0, "digital IO": [0, 1], "firmware version": 774, "device": "biosignalsplux", "position": 0, "sampling rate": 1000, "label": ["CH1"], "resolution": [16], "date": "2020-7-11", "special": [{}]}}
# EndOfHeader
0	0	32820	
1	0	32828	
2	0	32786	
3	0	32680	
4	0	32720	
5	0	32814	
6	0	32848	
7	0	32804	
8	0	32808	
9	0	32636	
10	0	32564	
11	0	32532	
12	0	32456	
13	0	32428	
14	0	32508	
15	0	32644	
16	0	32876	
17	0	33056	
18	0	33152	
19	0	33148	
20	0	33116	
21	0	32808	
22	0	32556	
23	0	32640	
24	0	32804	
25	0	32820	
26	0	32844	
27	0	32924	
28	0	33016	
29	0	33028	
30	0	33012	
31	0	32940	
32	0	32809	
33	0	32652	
34	0	32588	
35	0	32676	
36	0	32644	
37	0	32460	
38	0	32416	
39	0	32654	
40	0	32825	
41	0	32968	
42	0	33120	
43	0	33112	
44	0	33020	
45	0	32960	
46	0	32913	
47	0	32832	
48	0	32684	
49	0	32552	
50	0	32544	
51	0	32460	
52	0	32628	
53	0	32754	
54	0	32745	
55	0	32816	
56	0	32857	
57	0	32884	
58	0	32940	
59	0	32796	
60	0	32756	
61	0	32668	
62	0	32812	
63	0	32804	
64	0	32752	
65	0	32748	
66	0	32708	
67	0	32733	
68	0	32736	
69	0	32672	
70	0	32752	
71	0	32756	
72	0	32748	
73	0	32804	
74	0	32842	
75	0	32893	
76	0	32853	
77	0	32732	
78	0	32824	
79	0	32832	
80	0	32752	
81	0	32716	
82	0	32716	
83	0	32732	
84	0	32600	
85	0	32640	
86	0	32732	
87	0	32817	
88	0	32837	
89	0	32856	
90	0	32794	
91	0	32892	
92	0	32888	
93	0	32848	
94	0	32936	
95	0	32829	
96	0	32912	
97	0	32873	
98	0	32984	
99	0	32800	
100	0	32817	
101	0	32737	
102	0	32788	
103	0	32944	
104	0	32648	
105	0	32554	
106	0	32628	
107	0	32636	
108	0	32652	
109	0	32684	
110	0	32770	
111	0	32433	
112	0	32132	
113	0	32230	
114	0	32516	
115	0	32792	
116	0	33188	
117	0	33460	
118	0	33644	
119	0	33484	
120	0	33304	
121	0	33092	
122	0	32846	
123	0	32600	
124	0	32465	
125	0	32580	
126	0	32772	
127	0	32720	
128	0	32724	
129	0	32677	
130	0	32620	
131	0	32592	
132	0	32692	
133	0	32848	
134	0	32916	
135	0	32814	
136	0	32760	
137	0	32680	
138	0	32641	
139	0	32660	
140	0	32632	
141	0	32500	
142	0	32420	
143	0	32504	
144	0	32617	
145	0	32820	
146	0	32964	
147	0	33020	
148	0	33134	
149	0	33209	
150	0	33147	
151	0	33029	
152	0	32828	
153	0	32812	
154	0	32600	
155	0	32656	
156	0	32668	
157	0	32721	
158	0	32733	
159	0	32700	
160	0	32744	
161	0	32800	
162	0	32704	
163	0	32864	
164	0	32768	
165	0	32500	
166	0	32484	
167	0	32568	
168	0	32728	
169	0	32820	
170	0	32824	
171	0	32785	
172	0	32756	
173	0	32662	
174	0	32676	
175	0	32654	
176	0	32688	
177	0	32733	
178	0	32892	
179	0	32912	
180	0	33040	
181	0	33056	
182	0	33008	
183	0	32944	
184	0	32661	
185	0	32852	
186	0	32936	
187	0	32876	
188	0	33024	
189	0	33012	
190	0	32903	
191	0	32908	
192	0	32988	
193	0	32796	
194	0	32646	
195	0	32544	
196	0	32625	
197	0	32596	
198	0	32768	
199	0	32792	
200	0	32724	
201	0	32665	
202	0	32672	
203	0	32784	
204	0	32800	
205	0	32836	
206	0	32716	
207	0	32736	
208	0	32688	
209	0	32652	
210	0	32612	
211	0	32389	
212	0	32400	
213	0	32536	
214	0	32708	
215	0	32748	
216	0	32980	
217	0	33020	
218	0	33084	
219	0	33148	
220	0	33124	
221	0	33174	
222	0	33084	
223	0	32828	
224	0	32804	
225	0	32860	
226	0	32796	
227	0	32808	
228	0	32852	
229	0	32860	
230	0	32748	
231	0	32836	
232	0	32756	
233	0	32576	
234	0	32596	
235	0	32373	
236	0	32396	
237	0	32496	
238	0	32578	
239	0	32676	
240	0	32688	
241	0	32840	
242	0	32872	
243	0	32876	
244	0	32870	
245	0	32801	
246	0	32750	
247	0	32761	
248	0	32756	
249	0	32824	
250	0	32804	
251	0	32682	
252	0	32664	
253	0	32608	
254	0	32740	
255	0	32828	
256	0	32872	
257	0	32996	
258	0	33140	
259	0	33097	
260	0	33040	
261	0	32992	
262	0	32944	
263	0	32752	
264	0	32600	
265	0	32724	
266	0	32780	
267	0	32588	
268	0	32344	
269	0	32352	
270	0	32428	
271	0	32612	
272	0	32776	
273	0	32946	
274	0	33108	
275	0	33068	
276	0	33031	
277	0	33032	
278	0	33140	
279	0	33084	
280	0	33144	
281	0	33020	
282	0	32880	
283	0	32776	
284	0	32646	
285	0	32717	
286	0	32688	
287	0	32628	
288	0	32616	
289	0	32580	
290	0	32636	
291	0	32629	
292	0	32580	
293	0	32620	
294	0	32420	
295	0	32362	
296	0	32468	
297	0	32692	
298	0	32932	
299	0	33220	
300	0	33372	
301	0	33152	
302	0	33053	
303	0	32912	
304	0	32864	
305	0	32671	
306	0	32540	
307	0	32548	
308	0	32732	
309	0	32864	
310	0	32742	
311	0	32708	
312	0	32684	
313	0	32452	
314	0	32436	
315	0	32744	
316	0	32728	
317	0	32596	
318	0	32653	
319	0	32796	
320	0	32832	
321	0	32832	
322	0	32840	
323	0	32834	
324	0	32928	
325	0	32996	
326	0	33132	
327	0	33068	
328	0	32966	
329	0	32797	
330	0	32764	
331	0	32768	
332	0	32676	
333	0	32760	
334	0	32748	
335	0	32760	
336	0	32729	
337	0	32716	
338	0	32586	
339	0	32724	
340	0	32696	
341	0	32716	
342	0	32644	
343	0	32600	
344	0	32637	
345	0	32704	
346	0	32788	
347	0	32784	
348	0	32698	
349	0	32828	
350	0	32844	
351	0	32788	
352	0	32766	
353	0	32788	
354	0	32760	
355	0	32824	
356	0	32908	
357	0	32972	
358	0	32880	
359	0	32560	
360	0	32416	
361	0	32580	
362	0	32721	
363	0	32784	
364	0	33036	
365	0	32992	
366	0	33004	
367	0	32796	
368	0	32736	
369	0	32762	
370	0	32808	
371	0	32824	
372	0	32902	
373	0	32808	
374	0	32660	
375	0	32676	
376	0	32740	
377	0	32681	
378	0	32752	
379	0	32900	
380	0	33108	
381	0	33296	
382	0	33172	
383	0	32956	
384	0	32802	
385	0	32778	
386	0	32692	
387	0	32612	
388	0	32600	
389	0	32622	
390	0	32556	
391	0	32572	
392	0	32656	
393	0	32684	
394	0	32624	
395	0	32540	
396	0	32484	
397	0	32332	
398	0	32408	
399	0	32617	
400	0	32808	
401	0	32968	
402	0	33148	
403	0	33190	
404	0	33180	
405	0	33140	
406	0	33148	
407	0	32928	
408	0	32772	
409	0	33000	
410	0	32884	
411	0	32721	
412	0	32584	
413	0	32487	
414	0	32424	
415	0	32508	
416	0	32637	
417	0	32636	
418	0	32220	
419	0	32260	
420	0	32470	
421	0	32741	
422	0	33044	
423	0	33180	
424	0	33256	
425	0	33340	
426	0	33374	
427	0	33233	
428	0	33006	
429	0	32880	
430	0	32718	
431	0	32764	
432	0	32688	
433	0	32632	
434	0	32636	
435	0	32692	
436	0	32636	
437	0	32164	
438	0	32068	
439	0	32244	
440	0	32600	
441	0	32808	
442	0	32984	
443	0	33197	
444	0	33256	
445	0	33332	
446	0	33372	
447	0	33144	
448	0	32924	
449	0	32592	
450	0	32588	
451	0	32646	
452	0	32636	
453	0	32696	
454	0	32556	
455	0	32400	
456	0	32436	
457	0	32460	
458	0	32668	
459	0	32832	
460	0	32956	
461	0	32648	
462	0	32544	
463	0	32800	
464	0	32846	
465	0	33096	
466	0	33352	
467	0	33520	
468	0	33252	
469	0	33140	
470	0	32948	
471	0	32684	
472	0	32440	
473	0	32256	
474	0	32348	
475	0	32426	
476	0	32632	
477	0	32692	
478	0	32716	
479	0	32716	
480	0	32724	
481	0	32828	
482	0	32820	
483	0	32632	
484	0	32132	
485	0	32248	
486	0	32560	
487	0	32784	
488	0	33017	
489	0	33176	
490	0	33360	
491	0	33392	
492	0	33428	
493	0	33248	
494	0	33116	
495	0	32972	
496	0	32724	
497	0	32828	
498	0	32745	
499	0	32692	
500	0	32728	
501	0	32660	
502	0	32464	
503	0	32501	
504	0	32524	
505	0	32460	
506	0	32328	
507	0	32268	
508	0	32416	
509	0	32765	
510	0	32916	
511	0	33088	
512	0	33152	
513	0	33148	
514	0	33120	
515	0	32924	
516	0	32876	
517	0	32800	
518	0	32772	
519	0	32832	
520	0	32876	
521	0	32832	
522	0	32632	
523	0	32428	
524	0	32508	
525	0	32672	
526	0	32720	
527	0	32852	
528	0	32909	
529	0	33040	
530	0	33076	
531	0	33056	
532	0	32848	
533	0	32737	
534	0	32572	
535	0	32552	
536	0	32660	
537	0	32816	
538	0	32780	
539	0	32784	
540	0	32720	
541	0	32840	
542	0	32772	
543	0	32676	
544	0	32616	
545	0	32704	
546	0	32740	
547	0	32577	
548	0	32388	
549	0	32436	
550	0	32516	
551	0	32544	
552	0	32800	
553	0	32996	
554	0	33080	
555	0	33132	
556	0	33148	
557	0	33180	
558	0	33414	
559	0	33484	
560	0	33252	
561	0	33044	
562	0	32745	
563	0	32412	
564	0	32304	
565	0	32264	
566	0	32276	
567	0	32348	
568	0	32456	
569	0	32396	
570	0	32024	
571	0	32188	
572	0	32536	
573	0	32928	
574	0	33240	
575	0	33664	
576	0	33832	
577	0	33824	
578	0	33740	
579	0	33356	
580	0	32874	
581	0	32658	
582	0	32564	
583	0	32492	
584	0	32536	
585	0	32672	
586	0	32580	
587	0	32604	
588	0	32624	
589	0	32580	
590	0	32576	
591	0	32440	
592	0	32552	
593	0	32564	
594	0	32312	
595	0	32302	
596	0	32528	
597	0	32780	
598	0	32876	
599	0	32733	
600	0	32608	
601	0	32438	
602	0	32584	
603	0	32756	
604	0	33164	
605	0	33292	
606	0	33236	
607	0	33300	
608	0	33292	
609	0	33268	
610	0	33124	
611	0	32988	
612	0	32716	
613	0	32630	
614	0	32440	
615	0	32360	
616	0	32213	
617	0	32196	
618	0	32588	
619	0	33040	
620	0	33036	
621	0	32956	
622	0	32928	
623	0	32796	
624	0	32924	
625	0	32956	
626	0	32932	
627	0	32880	
628	0	32678	
629	0	32612	
630	0	32680	
631	0	32672	
632	0	32544	
633	0	32548	
634	0	32672	
635	0	32653	
636	0	32698	
637	0	32625	
638	0	32676	
639	0	32696	
640	0	32689	
641	0	32768	
642	0	32680	
643	0	32653	
644	0	32644	
645	0	32692	
646	0	32896	
647	0	32884	
648	0	32952	
649	0	32832	
650	0	32477	
651	0	32476	
652	0	32725	
653	0	32866	
654	0	33012	
655	0	33164	
656	0	33088	
657	0	33033	
658	0	32892	
659	0	32784	
660	0	32784	
661	0	32700	
662	0	32760	
663	0	32776	
664	0	32836	
665	0	32944	
666	0	32856	
667	0	32840	
668	0	33000	
669	0	32902	
670	0	32724	
671	0	32648	
672	0	32317	
673	0	32044	
674	0	32160	
675	0	32512	
676	0	32836	
677	0	33020	
678	0	33172	
679	0	33280	
680	0	33340	
681	0	33160	
682	0	33152	
683	0	32880	
684	0	32726	
685	0	32576	
686	0	32604	
687	0	32532	
688	0	32336	
689	0	32012	
690	0	31653	
691	0	31844	
692	0	32384	
693	0	32640	
694	0	33112	
695	0	33392	
696	0	33648	
697	0	33660	
698	0	33688	
699	0	33559	
700	0	33260	
701	0	33028	
702	0	33148	
703	0	33100	
704	0	32752	
705	0	32548	
706	0	32476	
707	0	32440	
708	0	32584	
709	0	32776	
710	0	32900	
711	0	32972	
712	0	32670	
713	0	32640	
714	0	32625	
715	0	32620	
716	0	32560	
717	0	32448	
718	0	32404	
719	0	32380	
720	0	32238	
721	0	32336	
722	0	32624	
723	0	32773	
724	0	32964	
725	0	33024	
726	0	33080	
727	0	33079	
728	0	33008	
729	0	33036	
730	0	32888	
731	0	32872	
732	0	32864	
733	0	32916	
734	0	32896	
735	0	32788	
736	0	32652	
737	0	32704	
738	0	32724	
739	0	32756	
740	0	32692	
741	0	32780	
742	0	32905	
743	0	32820	
744	0	32772	
745	0	32740	
746	0	32800	
747	0	32740	
748	0	32676	
749	0	32692	
750	0	32704	
751	0	32832	
752	0	32712	
753	0	32768	
754	0	32775	
755	0	32668	
756	0	32664	
757	0	32788	
758	0	32812	
759	0	32758	
760	0	32836	
761	0	32928	
762	0	32752	
763	0	32564	
764	0	32453	
765	0	32580	
766	0	32668	
767	0	32752	
768	0	32960	
769	0	33060	
770	0	33005	
771	0	32960	
772	0	32782	
773	0	32596	
774	0	32524	
775	0	32728	
776	0	32840	
777	0	32637	
778	0	32540	
779	0	32580	
780	0	32672	
781	0	32872	
782	0	33076	
783	0	33302	
784	0	33212	
785	0	33092	
786	0	33088	
787	0	32988	
788	0	32788	
789	0	32532	
790	0	32177	
791	0	32232	
792	0	32270	
793	0	32308	
794	0	32412	
795	0	32520	
796	0	32718	
797	0	32980	
798	0	32748	
799	0	33009	
800	0	33289	
801	0	33060	
802	0	33040	
803	0	33156	
804	0	33020	
805	0	32916	
806	0	32964	
807	0	33072	
808	0	33060	
809	0	33056	
810	0	32916	
811	0	32892	
812	0	32808	
813	0	32776	
814	0	32673	
815	0	32552	
816	0	32444	
817	0	32474	
818	0	32212	
819	0	32193	
820	0	32382	
821	0	32472	
822	0	32264	
823	0	32414	
824	0	32640	
825	0	32988	
826	0	33212	
827	0	33232	
828	0	33448	
829	0	33404	
830	0	33380	
831	0	33108	
832	0	32836	
833	0	32724	
834	0	32622	
835	0	32540	
836	0	32444	
837	0	32320	
838	0	32204	
839	0	32436	
840	0	32624	
841	0	32720	
842	0	32996	
843	0	33089	
844	0	33200	
845	0	33249	
846	0	33184	
847	0	33048	
848	0	33010	
849	0	32916	
850	0	32764	
851	0	32637	
852	0	32604	
853	0	32752	
854	0	32500	
855	0	32248	
856	0	32324	
857	0	32504	
858	0	32797	
859	0	33040	
860	0	33036	
861	0	33188	
862	0	33060	
863	0	32984	
864	0	32952	
865	0	32912	
866	0	32604	
867	0	32392	
868	0	32376	
869	0	32408	
870	0	32388	
871	0	32400	
872	0	32838	
873	0	33025	
874	0	33020	
875	0	32976	
876	0	32852	
877	0	33008	
878	0	32792	
879	0	32616	
880	0	32804	
881	0	33056	
882	0	32917	
883	0	32608	
884	0	32416	
885	0	32493	
886	0	32528	
887	0	32644	
888	0	32756	
889	0	32830	
890	0	32820	
891	0	32965	
892	0	33060	
893	0	32900	
894	0	32980	
895	0	33084	
896	0	32580	
897	0	32416	
898	0	32544	
899	0	32884	
900	0	33152	
901	0	33240	
902	0	33016	
903	0	32952	
904	0	32806	
905	0	32724	
906	0	32640	
907	0	32769	
908	0	33001	
909	0	32878	
910	0	32562	
911	0	32628	
912	0	32629	
913	0	32550	
914	0	32558	
915	0	32684	
916	0	32756	
917	0	33024	
918	0	33096	
919	0	32976	
920	0	32880	
921	0	32680	
922	0	32606	
923	0	32612	
924	0	32580	
925	0	32580	
926	0	32560	
927	0	32704	
928	0	32760	
929	0	32820	
930	0	32820	
931	0	32844	
932	0	32652	
933	0	32496	
934	0	32516	
935	0	32600	
936	0	32772	
937	0	33021	
938	0	33158	
939	0	33160	
940	0	33164	
941	0	32924	
942	0	32880	
943	0	32936	
944	0	32800	
945	0	32692	
946	0	32608	
947	0	32601	
948	0	32721	
949	0	32684	
950	0	32692	
951	0	32636	
952	0	32556	
953	0	32492	
954	0	32420	
955	0	32472	
956	0	32548	
957	0	32692	
958	0	32864	
959	0	33024	
960	0	32972	
961	0	33080	
962	0	33012	
963	0	32856	
964	0	32654	
965	0	32644	
966	0	32780	
967	0	32996	
968	0	33064	
969	0	33142	
970	0	33064	
971	0	32940	
972	0	32808	
973	0	32764	
974	0	32660	
975	0	32533	
976	0	32652	
977	0	32704	
978	0	32720	
979	0	32732	
980	0	32576	
981	0	32447	
982	0	32540	
983	0	32600	
984	0	32712	
985	0	32800	
986	0	32864	
987	0	32940	
988	0	32868	
989	0	32868	
990	0	32940	
991	0	32972	
992	0	32928	
993	0	33096	
994	0	32810	
995	0	32764	
996	0	32708	
997	0	32724	
998	0	32908	
999	0	32816	
1000	0	32400	
1001	0	32152	
1002	0	32316	
1003	0	32684	
1004	0	32916	
1005	0	33104	
1006	0	33108	
1007	0	33252	
1008	0	33300	
1009	0	33284	
1010	0	33032	
1011	0	32991	
1012	0	32704	
1013	0	32732	
1014	0	32646	
1015	0	32560	
1016	0	32640	
1017	0	32584	
1018	0	32500	
1019	0	32628	
1020	0	32660	
1021	0	32644	
1022	0	32724	
1023	0	32700	
1024	0	32708	
1025	0	32960	
1026	0	32925	
1027	0	32860	
1028	0	32916	
1029	0	32820	
1030	0	32728	
1031	0	32656	
1032	0	32605	
1033	0	32628	
1034	0	32724	
1035	0	32724	
1036	0	32668	
1037	0	32753	
1038	0	32832	
1039	0	32888	
1040	0	32852	
1041	0	32796	
1042	0	32856	
1043	0	32656	
1044	0	32620	
1045	0	32612	
1046	0	32716	
1047	0	32636	
1048	0	32513	
1049	0	32468	
1050	0	32664	
1051	0	32800	
1052	0	32828	
1053	0	32952	
1054	0	33012	
1055	0	33132	
1056	0	33225	
1057	0	33168	
1058	0	33184	
1059	0	33145	
1060	0	32537	
1061	0	32264	
1062	0	32369	
1063	0	32420	
1064	0	32496	
1065	0	32692	
1066	0	32860	
1067	0	33055	
1068	0	32608	
1069	0	32480	
1070	0	32640	
1071	0	32788	
1072	0	33060	
1073	0	33388	
1074	0	33404	
1075	0	33524	
1076	0	33188	
1077	0	32900	
1078	0	32824	
1079	0	32864	
1080	0	32852	
1081	0	32732	
1082	0	32615	
1083	0	32536	
1084	0	32332	
1085	0	32312	
1086	0	32330	
1087	0	32440	
1088	0	32676	
1089	0	32760	
1090	0	32688	
1091	0	32824	
1092	0	32933	
1093	0	32776	
1094	0	32856	
1095	0	32988	
1096	0	32724	
1097	0	32584	
1098	0	32728	
1099	0	32789	
1100	0	32896	
1101	0	32940	
1102	0	32836	
1103	0	32766	
1104	0	32752	
1105	0	32800	
1106	0	32636	
1107	0	32580	
1108	0	32732	
1109	0	32536	
1110	0	32508	
1111	0	32902	
1112	0	32908	
1113	0	32832	
1114	0	32796	
1115	0	32868	
1116	0	32894	
1117	0	32884	
1118	0	32948	
1119	0	32920	
1120	0	32808	
1121	0	32473	
1122	0	32548	
1123	0	32804	
1124	0	32952	
1125	0	32929	
1126	0	33096	
1127	0	33053	
1128	0	32944	
1129	0	32792	
1130	0	32844	
1131	0	32820	
1132	0	32628	
1133	0	32492	
1134	0	32456	
1135	0	32466	
1136	0	32513	
1137	0	32548	
1138	0	32621	
1139	0	32708	
1140	0	32756	
1141	0	33000	
1142	0	33048	
1143	0	32964	
1144	0	32809	
1145	0	32736	
1146	0	32668	
1147	0	32496	
1148	0	32645	
1149	0	32836	
1150	0	33036	
1151	0	33140	
1152	0	33004	
1153	0	32536	
1154	0	32228	
1155	0	32100	
1156	0	32372	
1157	0	32752	
1158	0	33212	
1159	0	33276	
1160	0	33452	
1161	0	33628	
1162	0	33468	
1163	0	33236	
1164	0	33224	
1165	0	32980	
1166	0	32840	
1167	0	32788	
1168	0	32568	
1169	0	32620	
1170	0	32488	
1171	0	32432	
1172	0	32300	
1173	0	32108	
1174	0	32228	
1175	0	32424	
1176	0	32636	
1177	0	32800	
1178	0	32868	
1179	0	32969	
1180	0	32916	
1181	0	32776	
1182	0	32696	
1183	0	32520	
1184	0	32396	
1185	0	32404	
1186	0	32396	
1187	0	32584	
1188	0	32924	
1189	0	33260	
1190	0	33501	
1191	0	33664	
1192	0	33664	
1193	0	33412	
1194	0	33028	
1195	0	32834	
1196	0	32644	
1197	0	32600	
1198	0	32608	
1199	0	32560	
1200	0	32440	
1201	0	32532	
1202	0	32532	
1203	0	32452	
1204	0	32508	
1205	0	32628	
1206	0	32736	
1207	0	32656	
1208	0	32760	
1209	0	32864	
1210	0	32836	
1211	0	32820	
1212	0	32661	
1213	0	32608	
1214	0	32620	
1215	0	32664	
1216	0	32836	
1217	0	32992	
1218	0	33100	
1219	0	32936	
1220	0	32902	
1221	0	32888	
1222	0	32772	
1223	0	32784	
1224	0	32837	
1225	0	32756	
1226	0	32784	
1227	0	32840	
1228	0	32676	
1229	0	32752	
1230	0	32748	
1231	0	32712	
1232	0	32764	
1233	0	32756	
1234	0	32806	
1235	0	32828	
1236	0	32804	
1237	0	32838	
1238	0	32776	
1239	0	32700	
1240	0	32680	
1241	0	32740	
1242	0	32748	
1243	0	32564	
1244	0	32368	
1245	0	32380	
1246	0	32400	
1247	0	32600	
1248	0	32878	
1249	0	33176	
1250	0	33320	
1251	0	33328	
1252	0	33360	
1253	0	33337	
1254	0	33084	
1255	0	32700	
1256	0	32496	
1257	0	32624	
1258	0	32640	
1259	0	32500	
1260	0	32608	
1261	0	32644	
1262	0	32684	
1263	0	32704	
1264	0	32680	
1265	0	32676	
1266	0	32774	
1267	0	32897	
1268	0	32780	
1269	0	32836	
1270	0	32916	
1271	0	32972	
1272	0	32900	
1273	0	32669	
1274	0	32708	
1275	0	32584	
1276	0	32560	
1277	0	32596	
1278	0	32692	
1279	0	32821	
1280	0	32988	
1281	0	32848	
1282	0	32741	
1283	0	32692	
1284	0	32636	
1285	0	32724	
1286	0	32940	
1287	0	32997	
1288	0	33004	
1289	0	32936	
1290	0	32845	
1291	0	32804	
1292	0	32936	
1293	0	32968	
1294	0	32636	
1295	0	32560	
1296	0	32520	
1297	0	32400	
1298	0	32634	
1299	0	32776	
1300	0	32949	
1301	0	32968	
1302	0	32960	
1303	0	32968	
1304	0	32908	
1305	0	32877	
1306	0	32761	
1307	0	32660	
1308	0	32537	
1309	0	32732	
1310	0	32632	
1311	0	32708	
1312	0	32721	
1313	0	32804	
1314	0	32952	
1315	0	32968	
1316	0	32840	
1317	0	32734	
1318	0	32792	
1319	0	32928	
1320	0	32912	
1321	0	32857	
1322	0	32692	
1323	0	32704	
1324	0	32700	
1325	0	32644	
1326	0	32644	
1327	0	32613	
1328	0	32632	
1329	0	32632	
1330	0	32656	
1331	0	32704	
1332	0	32576	
1333	0	32238	
1334	0	32316	
1335	0	32476	
1336	0	32593	
1337	0	32964	
1338	0	33272	
1339	0	33332	
1340	0	33284	
1341	0	33188	
1342	0	33164	
1343	0	33205	
1344	0	33004	
1345	0	32932	
1346	0	32924	
1347	0	32812	
1348	0	32796	
1349	0	32732	
1350	0	32596	
1351	0	32436	
1352	0	32396	
1353	0	32478	
1354	0	32665	
1355	0	32716	
1356	0	32688	
1357	0	32760	
1358	0	32800	
1359	0	32772	
1360	0	32708	
1361	0	32736	
1362	0	32760	
1363	0	32633	
1364	0	32660	
1365	0	32796	
1366	0	32864	
1367	0	32784	
1368	0	32936	
1369	0	32944	
1370	0	33024	
1371	0	33104	
1372	0	32908	
1373	0	32816	
1374	0	32654	
1375	0	32612	
1376	0	32616	
1377	0	32668	
1378	0	32660	
1379	0	32805	
1380	0	32760	
1381	0	32788	
1382	0	32857	
1383	0	32944	
1384	0	32639	
1385	0	32416	
1386	0	32476	
1387	0	32484	
1388	0	32740	
1389	0	32767	
1390	0	32708	
1391	0	32720	
1392	0	32720	
1393	0	32824	
1394	0	32900	
1395	0	32980	
1396	0	32928	
1397	0	32896	
1398	0	33060	
1399	0	33172	
1400	0	33076	
1401	0	33033	
1402	0	33252	
1403	0	33020	
1404	0	32825	
1405	0	32565	
1406	0	32560	
1407	0	32620	
1408	0	32612	
1409	0	32804	
1410	0	32876	
1411	0	33016	
1412	0	32901	
1413	0	32848	
1414	0	32784	
1415	0	32672	
1416	0	32488	
1417	0	32376	
1418	0	32420	
1419	0	32468	
1420	0	32596	
1421	0	32544	
1422	0	32632	
1423	0	32706	
1424	0	32612	
1425	0	32732	
1426	0	32852	
1427	0	33036	
1428	0	32941	
1429	0	32996	
1430	0	33052	
1431	0	33092	
1432	0	33020	
1433	0	32940	
1434	0	32756	
1435	0	32560	
1436	0	32548	
1437	0	32672	
1438	0	32888	
1439	0	32925	
1440	0	33116	
1441	0	33156	
1442	0	32944	
1443	0	32896	
1444	0	32792	
1445	0	32526	
1446	0	32480	
1447	0	32638	
1448	0	32548	
1449	0	32384	
1450	0	32428	
1451	0	32500	
1452	0	32624	
1453	0	32832	
1454	0	32976	
1455	0	33188	
1456	0	33184	
1457	0	33004	
1458	0	32788	
1459	0	32908	
1460	0	32760	
1461	0	32816	
1462	0	32868	
1463	0	32752	
1464	0	32684	
1465	0	32648	
1466	0	32704	
1467	0	32628	
1468	0	32684	
1469	0	32740	
1470	0	32920	
1471	0	32842	
1472	0	32748	
1473	0	32804	
1474	0	32826	
1475	0	32732	
1476	0	32728	
1477	0	32856	
1478	0	32792	
1479	0	32748	
1480	0	32752	
1481	0	32832	
1482	0	32764	
1483	0	32752	
1484	0	32784	
1485	0	32732	
1486	0	32716	
1487	0	32754	
1488	0	32704	
1489	0	32712	
1490	0	32700	
1491	0	32800	
1492	0	32856	
1493	0	32828	
1494	0	32768	
1495	0	32836	
1496	0	32826	
1497	0	32856	
1498	0	32816	
1499	0	32836	
1500	0	32852	
1501	0	32620	
1502	0	32493	
1503	0	32456	
1504	0	32484	
1505	0	32700	
1506	0	32892	
1507	0	32996	
1508	0	32996	
1509	0	33044	
1510	0	32944	
1511	0	32932	
1512	0	32792	
1513	0	32708	
1514	0	32712	
1515	0	32812	
1516	0	32808	
1517	0	32772	
1518	0	32704	
1519	0	32624	
1520	0	32736	
1521	0	32925	
1522	0	32900	
1523	0	33020	
1524	0	33004	
1525	0	33068	
1526	0	32776	
1527	0	32756	
1528	0	32688	
1529	0	32750	
1530	0	32588	
1531	0	32582	
1532	0	32496	
1533	0	32432	
1534	0	32496	
1535	0	32640	
1536	0	32756	
1537	0	32716	
1538	0	32785	
1539	0	32744	
1540	0	32824	
1541	0	32736	
1542	0	32784	
1543	0	32632	
1544	0	32576	
1545	0	32672	
1546	0	32752	
1547	0	32800	
1548	0	32928	
1549	0	33032	
1550	0	32928	
1551	0	33012	
1552	0	33100	
1553	0	33204	
1554	0	33088	
1555	0	32856	
1556	0	32712	
1557	0	32752	
1558	0	32672	
1559	0	32568	
1560	0	32546	
1561	0	32576	
1562	0	32660	
1563	0	32624	
1564	0	32660	
1565	0	32726	
1566	0	32780	
1567	0	32836	
1568	0	32822	
1569	0	32776	
1570	0	32776	
1571	0	32800	
1572	0	32720	
1573	0	32712	
1574	0	32764	
1575	0	32777	
1576	0	32828	
1577	0	32816	
1578	0	32784	
1579	0	32708	
1580	0	32768	
1581	0	32748	
1582	0	32812	
1583	0	32752	
1584	0	32817	
1585	0	32840	
1586	0	32860	
1587	0	32904	
1588	0	32800	
1589	0	32756	
1590	0	32684	
1591	0	32776	
1592	0	32766	
1593	0	32804	
1594	0	32744	
1595	0	32792	
1596	0	32748	
1597	0	32793	
1598	0	32840	
1599	0	32808	
1600	0	32756	
1601	0	32588	
1602	0	32652	
1603	0	32544	
1604	0	32453	
1605	0	32452	
1606	0	32612	
1607	0	32802	
1608	0	32976	
1609	0	32900	
1610	0	32956	
1611	0	32972	
1612	0	32912	
1613	0	32929	
1614	0	33192	
1615	0	33224	
1616	0	32993	
1617	0	32886	
1618	0	32940	
1619	0	33116	
1620	0	32776	
1621	0	32544	
1622	0	32508	
1623	0	32552	
1624	0	32492	
1625	0	32540	
1626	0	32780	
1627	0	32840	
1628	0	33004	
1629	0	32909	
1630	0	32736	
1631	0	32681	
1632	0	32652	
1633	0	32709	
1634	0	32717	
1635	0	32637	
1636	0	32564	
1637	0	32344	
1638	0	32196	
1639	0	32212	
1640	0	32432	
1641	0	32684	
1642	0	32879	
1643	0	32520	
1644	0	32537	
1645	0	32737	
1646	0	33100	
1647	0	33225	
1648	0	33436	
1649	0	33616	
1650	0	33916	
1651	0	33708	
1652	0	33156	
1653	0	33038	
1654	0	32956	
1655	0	32792	
1656	0	32655	
1657	0	32652	
1658	0	32621	
1659	0	32604	
1660	0	32448	
1661	0	32408	
1662	0	32494	
1663	0	32480	
1664	0	32528	
1665	0	32588	
1666	0	32612	
1667	0	32664	
1668	0	32721	
1669	0	32744	
1670	0	32801	
1671	0	32792	
1672	0	32820	
1673	0	32808	
1674	0	32752	
1675	0	32824	
1676	0	32936	
1677	0	33024	
1678	0	33056	
1679	0	33060	
1680	0	33048	
1681	0	33012	
1682	0	32936	
1683	0	32904	
1684	0	32872	
1685	0	32772	
1686	0	32702	
1687	0	32760	
1688	0	32734	
1689	0	32724	
1690	0	32712	
1691	0	32756	
1692	0	32776	
1693	0	32764	
1694	0	32726	
1695	0	32748	
1696	0	32652	
1697	0	32601	
1698	0	32460	
1699	0	32468	
1700	0	32656	
1701	0	32756	
1702	0	32872	
1703	0	33000	
1704	0	33010	
1705	0	33012	
1706	0	33077	
1707	0	33168	
1708	0	33040	
1709	0	32796	
1710	0	32740	
1711	0	32756	
1712	0	32628	
1713	0	32500	
1714	0	32464	
1715	0	32448	
1716	0	32488	
1717	0	32480	
1718	0	32632	
1719	0	32852	
1720	0	32924	
1721	0	33052	
1722	0	33096	
1723	0	33265	
1724	0	32944	
1725	0	32509	
1726	0	32488	
1727	0	32540	
1728	0	32656	
1729	0	32820	
1730	0	32770	
1731	0	32772	
1732	0	32792	
1733	0	32789	
1734	0	32888	
1735	0	32968	
1736	0	32772	
1737	0	32624	
1738	0	32764	
1739	0	32685	
1740	0	32782	
1741	0	32824	
1742	0	32736	
1743	0	32800	
1744	0	32964	
1745	0	33104	
1746	0	32892	
1747	0	32732	
1748	0	32720	
1749	0	32817	
1750	0	32860	
1751	0	32861	
1752	0	32644	
1753	0	32468	
1754	0	32452	
1755	0	32604	
1756	0	32836	
1757	0	32884	
1758	0	33060	
1759	0	33132	
1760	0	33162	
1761	0	33004	
1762	0	32916	
1763	0	32774	
1764	0	32648	
1765	0	32620	
1766	0	32548	
1767	0	32622	
1768	0	32492	
1769	0	32612	
1770	0	32637	
1771	0	32688	
1772	0	32676	
1773	0	32696	
1774	0	32688	
1775	0	32720	
1776	0	32786	
1777	0	32772	
1778	0	32740	
1779	0	32728	
1780	0	32716	
1781	0	32782	
1782	0	32764	
1783	0	32776	
1784	0	32824	
1785	0	32740	
1786	0	32760	
1787	0	32772	
1788	0	32996	
1789	0	32892	
1790	0	32668	
1791	0	32676	
1792	0	32736	
1793	0	32740	
1794	0	32728	
1795	0	32764	
1796	0	32954	
1797	0	32988	
1798	0	32954	
1799	0	32932	
1800	0	32996	
1801	0	32980	
1802	0	32772	
1803	0	32728	
1804	0	32680	
1805	0	32694	
1806	0	32692	
1807	0	32564	
1808	0	32601	
1809	0	32676	
1810	0	32744	
1811	0	32737	
1812	0	32689	
1813	0	32728	
1814	0	32772	
1815	0	32696	
1816	0	32656	
1817	0	32644	
1818	0	32736	
1819	0	32680	
1820	0	32570	
1821	0	32680	
1822	0	32712	
1823	0	32896	
1824	0	33008	
1825	0	33116	
1826	0	33396	
1827	0	33464	
1828	0	33232	
1829	0	32956	
1830	0	32964	
1831	0	32672	
1832	0	32456	
1833	0	32480	
1834	0	32561	
1835	0	32508	
1836	0	32412	
1837	0	32502	
1838	0	32508	
1839	0	32382	
1840	0	32472	
1841	0	32732	
1842	0	32884	
1843	0	33000	
1844	0	33052	
1845	0	33036	
1846	0	33024	
1847	0	32888	
1848	0	32980	
1849	0	33100	
1850	0	32840	
1851	0	32768	
1852	0	32784	
1853	0	32716	
1854	0	32708	
1855	0	32636	
1856	0	32780	
1857	0	32828	
1858	0	32864	
1859	0	32780	
1860	0	32772	
1861	0	32680	
1862	0	32596	
1863	0	32604	
1864	0	32617	
1865	0	32420	
1866	0	32480	
1867	0	32588	
1868	0	32697	
1869	0	32820	
1870	0	32936	
1871	0	33120	
1872	0	33108	
1873	0	32968	
1874	0	32844	
1875	0	32832	
1876	0	32728	
1877	0	32620	
1878	0	32708	
1879	0	32704	
1880	0	32708	
1881	0	32749	
1882	0	32696	
1883	0	32652	
1884	0	32480	
1885	0	32336	
1886	0	32441	
1887	0	32636	
1888	0	32961	
1889	0	33112	
1890	0	33208	
1891	0	33324	
1892	0	33412	
1893	0	33232	
1894	0	32864	
1895	0	32776	
1896	0	32492	
1897	0	32546	
1898	0	32580	
1899	0	32608	
1900	0	32608	
1901	0	32672	
1902	0	32608	
1903	0	32712	
1904	0	32781	
1905	0	32656	
1906	0	32692	
1907	0	32768	
1908	0	33100	
1909	0	33172	
1910	0	33064	
1911	0	33036	
1912	0	33055	
1913	0	33134	
1914	0	32968	
1915	0	32772	
1916	0	32664	
1917	0	32644	
1918	0	32608	
1919	0	32536	
1920	0	32504	
1921	0	32509	
1922	0	32476	
1923	0	32556	
1924	0	32695	
1925	0	32904	
1926	0	33236	
1927	0	33296	
1928	0	33288	
1929	0	33316	
1930	0	33201	
1931	0	33097	
1932	0	32914	
1933	0	32508	
1934	0	32246	
1935	0	32430	
1936	0	32372	
1937	0	32392	
1938	0	32624	
1939	0	32612	
1940	0	32782	
1941	0	32816	
1942	0	32804	
1943	0	32789	
1944	0	32852	
1945	0	32772	
1946	0	32748	
1947	0	32628	
1948	0	32636	
1949	0	32477	
1950	0	32592	
1951	0	32644	
1952	0	32836	
1953	0	32824	
1954	0	32784	
1955	0	32948	
1956	0	32960	
1957	0	32964	
1958	0	32896	
1959	0	32845	
1960	0	32768	
1961	0	32780	
1962	0	32892	
1963	0	32737	
1964	0	32696	
1965	0	32612	
1966	0	32348	
1967	0	32390	
1968	0	32496	
1969	0	32716	
1970	0	32892	
1971	0	33060	
1972	0	33120	
1973	0	33160	
1974	0	32908	
1975	0	32820	
1976	0	32884	
1977	0	32908	
1978	0	32796	
1979	0	32712	
1980	0	32732	
1981	0	32680	
1982	0	32700	
1983	0	32608	
1984	0	32492	
1985	0	32429	
1986	0	32644	
1987	0	32812	
1988	0	32913	
1989	0	32952	
1990	0	32864	
1991	0	32796	
1992	0	32812	
1993	0	32788	
1994	0	32896	
1995	0	32876	
1996	0	33092	
1997	0	33052	
1998	0	32920	
1999	0	32774	
2000	0	32604	
2001	0	32612	
2002	0	32488	
2003	0	32649	
2004	0	32676	
2005	0	32704	
2006	0	32684	
2007	0	32536	
2008	0	32484	
2009	0	32540	
2010	0	32608	
2011	0	32728	
2012	0	32936	
2013	0	33084	
2014	0	33273	
2015	0	33308	
2016	0	33284	
2017	0	33012	
2018	0	32728	
2019	0	32696	
2020	0	32468	
2021	0	32496	
2022	0	32320	
2023	0	32264	
2024	0	32440	
2025	0	32665	
2026	0	32900	
2027	0	32964	
2028	0	33036	
2029	0	33120	
2030	0	33053	
2031	0	32992	
2032	0	32932	
2033	0	32716	
2034	0	32420	
2035	0	32516	
2036	0	32544	
2037	0	32444	
2038	0	32528	
2039	0	32886	
2040	0	33092	
2041	0	33126	
2042	0	33336	
2043	0	33356	
2044	0	33252	
2045	0	33008	
2046	0	32804	
2047	0	32824	
2048	0	32624	
2049	0	32560	
2050	0	32552	
2051	0	32552	
2052	0	32581	
2053	0	32572	
2054	0	32586	
2055	0	32608	
2056	0	32716	
2057	0	32760	
2058	0	32752	
2059	0	32744	
2060	0	32764	
2061	0	32724	
2062	0	32768	
2063	0	32732	
2064	0	32724	
2065	0	32832	
2066	0	32788	
2067	0	32792	
2068	0	32716	
2069	0	32776	
2070	0	32661	
2071	0	32712	
2072	0	32776	
2073	0	32776	
2074	0	32704	
2075	0	32748	
2076	0	32824	
2077	0	32756	
2078	0	32776	
2079	0	32712	
2080	0	32806	
2081	0	32949	
2082	0	32985	
2083	0	32968	
2084	0	32844	
2085	0	32828	
2086	0	32876	
2087	0	32824	
2088	0	32831	
2089	0	32740	
2090	0	33000	
2091	0	32812	
2092	0	32488	
2093	0	32600	
2094	0	32696	
2095	0	32789	
2096	0	32920	
2097	0	32932	
2098	0	33196	
2099	0	33273	
2100	0	32980	
2101	0	32928	
2102	0	32912	
2103	0	32620	
2104	0	32600	
2105	0	32560	
2106	0	32612	
2107	0	32718	
2108	0	32672	
2109	0	32726	
2110	0	32644	
2111	0	32676	
2112	0	32648	
2113	0	32736	
2114	0	32804	
2115	0	32796	
2116	0	32812	
2117	0	32768	
2118	0	32744	
2119	0	32736	
2120	0	32636	
2121	0	32656	
2122	0	32552	
2123	0	32636	
2124	0	32832	
2125	0	32820	
2126	0	32784	
2127	0	32628	
2128	0	32608	
2129	0	32784	
2130	0	32802	
2131	0	32932	
2132	0	33080	
2133	0	33092	
2134	0	33080	
2135	0	32952	
2136	0	33024	
2137	0	32797	
2138	0	32665	
2139	0	32636	
2140	0	32720	
2141	0	32704	
2142	0	32828	
2143	0	32632	
2144	0	32532	
2145	0	32472	
2146	0	32538	
2147	0	32632	
2148	0	32816	
2149	0	32908	
2150	0	32960	
2151	0	33024	
2152	0	33068	
2153	0	33140	
2154	0	33112	
2155	0	32762	
2156	0	32548	
2157	0	32444	
2158	0	32404	
2159	0	32492	
2160	0	32576	
2161	0	32544	
2162	0	32624	
2163	0	32732	
2164	0	32860	
2165	0	32924	
2166	0	32732	
2167	0	32860	
2168	0	32984	
2169	0	33204	
2170	0	33070	
2171	0	32976	
2172	0	32928	
2173	0	32812	
2174	0	32744	
2175	0	32796	
2176	0	33132	
2177	0	32852	
2178	0	32484	
2179	0	32532	
2180	0	32668	
2181	0	32773	
2182	0	32744	
2183	0	32663	
2184	0	32868	
2185	0	32736	
2186	0	32564	
2187	0	32956	
2188	0	33060	
2189	0	32768	
2190	0	32584	
2191	0	32784	
2192	0	32869	
2193	0	32912	
2194	0	32820	
2195	0	32756	
2196	0	32741	
2197	0	32704	
2198	0	32708	
2199	0	32676	
2200	0	32640	
2201	0	32792	
2202	0	32812	
2203	0	32828	
2204	0	32916	
2205	0	32617	
2206	0	32644	
2207	0	32800	
2208	0	32876	
2209	0	32692	
2210	0	32528	
2211	0	32696	
2212	0	32632	
2213	0	32644	
2214	0	32672	
2215	0	32700	
2216	0	32800	
2217	0	32860	
2218	0	33108	
2219	0	33156	
2220	0	33220	
2221	0	33016	
2222	0	32792	
2223	0	32688	
2224	0	32772	
2225	0	32792	
2226	0	32600	
2227	0	32604	
2228	0	32596	
2229	0	32504	
2230	0	32656	
2231	0	32728	
2232	0	32868	
2233	0	32920	
2234	0	32826	
2235	0	32884	
2236	0	32879	
2237	0	32904	
2238	0	32876	
2239	0	32808	
2240	0	32784	
2241	0	32712	
2242	0	32612	
2243	0	32545	
2244	0	32476	
2245	0	32604	
2246	0	32740	
2247	0	32844	
2248	0	32832	
2249	0	32898	
2250	0	32848	
2251	0	32772	
2252	0	32888	
2253	0	32736	
2254	0	32702	
2255	0	32792	
2256	0	32796	
2257	0	32756	
2258	0	32776	
2259	0	32712	
2260	0	32776	
2261	0	32908	
2262	0	32692	
2263	0	32540	
2264	0	32526	
2265	0	32694	
2266	0	32768	
2267	0	32768	
2268	0	32908	
2269	0	33056	
2270	0	33204	
2271	0	33072	
2272	0	33004	
2273	0	33129	
2274	0	33088	
2275	0	32812	
2276	0	32752	
2277	0	32576	
2278	0	32517	
2279	0	32628	
2280	0	32620	
2281	0	32612	
2282	0	32624	
2283	0	32660	
2284	0	32756	
2285	0	32796	
2286	0	32760	
2287	0	32868	
2288	0	32800	
2289	0	32740	
2290	0	32760	
2291	0	32648	
2292	0	32804	
2293	0	32812	
2294	0	32492	
2295	0	32428	
2296	0	32709	
2297	0	32788	
2298	0	32872	
2299	0	32884	
2300	0	32917	
2301	0	32940	
2302	0	33004	
2303	0	32964	
2304	0	32960	
2305	0	32825	
2306	0	32924	
2307	0	32932	
2308	0	32932	
2309	0	32860	
2310	0	32672	
2311	0	32536	
2312	0	32640	
2313	0	32676	
2314	0	32736	
2315	0	32672	
2316	0	32840	
2317	0	32800	
2318	0	32708	
2319	0	32653	
2320	0	32704	
2321	0	32669	
2322	0	32700	
2323	0	32760	
2324	0	32900	
2325	0	32820	
2326	0	32796	
2327	0	32768	
2328	0	32612	
2329	0	32468	
2330	0	32576	
2331	0	32740	
2332	0	33144	
2333	0	33076	
2334	0	33104	
2335	0	33034	
2336	0	32895	
2337	0	32888	
2338	0	32928	
2339	0	32780	
2340	0	32532	
2341	0	32448	
2342	0	32540	
2343	0	32592	
2344	0	32732	
2345	0	32788	
2346	0	32841	
2347	0	32857	
2348	0	32848	
2349	0	32836	
2350	0	32812	
2351	0	32826	
2352	0	32820	
2353	0	32832	
2354	0	32708	
2355	0	32832	
2356	0	32837	
2357	0	32716	
2358	0	32564	
2359	0	32456	
2360	0	32544	
2361	0	32620	
2362	0	32676	
2363	0	32728	
2364	0	32784	
2365	0	32943	
2366	0	33022	
2367	0	33080	
2368	0	33156	
2369	0	33032	
2370	0	32732	
2371	0	32668	
2372	0	32764	
2373	0	32756	
2374	0	32672	
2375	0	32656	
2376	0	32672	
2377	0	32636	
2378	0	32688	
2379	0	32706	
2380	0	32704	
2381	0	32628	
2382	0	32616	
2383	0	32564	
2384	0	32412	
2385	0	32428	
2386	0	32636	
2387	0	32886	
2388	0	32932	
2389	0	32684	
2390	0	32936	
2391	0	32996	
2392	0	33052	
2393	0	33136	
2394	0	33412	
2395	0	33116	
2396	0	32956	
2397	0	32868	
2398	0	32736	
2399	0	32756	
2400	0	32608	
2401	0	32553	
2402	0	32676	
2403	0	32652	
2404	0	32680	
2405	0	32757	
2406	0	32868	
2407	0	32884	
2408	0	32700	
2409	0	32687	
2410	0	32740	
2411	0	32812	
2412	0	32737	
2413	0	32708	
2414	0	32550	
2415	0	32676	
2416	0	32688	
2417	0	32736	
2418	0	32796	
2419	0	32860	
2420	0	32888	
2421	0	32832	
2422	0	32724	
2423	0	32692	
2424	0	32776	
2425	0	32836	
2426	0	32822	
2427	0	32704	
2428	0	32716	
2429	0	32750	
2430	0	32789	
2431	0	32797	
2432	0	32852	
2433	0	32844	
2434	0	32766	
2435	0	32892	
2436	0	32908	
2437	0	32912	
2438	0	32732	
2439	0	32708	
2440	0	32628	
2441	0	32698	
2442	0	32800	
2443	0	32704	
2444	0	32824	
2445	0	32916	
2446	0	32908	
2447	0	32668	
2448	0	32702	
2449	0	32684	
2450	0	32804	
2451	0	32764	
2452	0	32428	
2453	0	32436	
2454	0	32524	
2455	0	32676	
2456	0	32924	
2457	0	32948	
2458	0	33216	
2459	0	33260	
2460	0	33188	
2461	0	33116	
2462	0	32924	
2463	0	32824	
2464	0	32764	
2465	0	32668	
2466	0	32584	
2467	0	32676	
2468	0	32893	
2469	0	32856	
2470	0	32836	
2471	0	32724	
2472	0	32652	
2473	0	32640	
2474	0	32684	
2475	0	32712	
2476	0	32784	
2477	0	32744	
2478	0	32784	
2479	0	32776	
2480	0	32660	
2481	0	32460	
2482	0	32548	
2483	0	32580	
2484	0	32608	
2485	0	32780	
2486	0	32532	
2487	0	32420	
2488	0	32732	
2489	0	33016	
2490	0	33320	
2491	0	33644	
2492	0	33436	
2493	0	33448	
2494	0	33276	
2495	0	33060	
2496	0	32736	
2497	0	32664	
2498	0	32568	
2499	0	32572	
2500	0	32624	
2501	0	32552	
2502	0	32640	
2503	0	32612	
2504	0	32656	
2505	0	32672	
2506	0	32742	
2507	0	32740	
2508	0	32756	
2509	0	32780	
2510	0	32708	
2511	0	32724	
2512	0	32704	
2513	0	32720	
2514	0	32836	
2515	0	32921	
2516	0	32728	
2517	0	32470	
2518	0	32485	
2519	0	32510	
2520	0	32520	
2521	0	32708	
2522	0	32868	
2523	0	32978	
2524	0	32917	
2525	0	32940	
2526	0	33077	
2527	0	33080	
2528	0	32768	
2529	0	32676	
2530	0	32608	
2531	0	32722	
2532	0	32744	
2533	0	32768	
2534	0	32884	
2535	0	32756	
2536	0	32868	
2537	0	32868	
2538	0	32880	
2539	0	32824	
2540	0	32748	
2541	0	32705	
2542	0	32700	
2543	0	32912	
2544	0	32816	
2545	0	32673	
2546	0	32604	
2547	0	32644	
2548	0	32644	
2549	0	32748	
2550	0	32840	
2551	0	32836	
2552	0	32796	
2553	0	32772	
2554	0	32756	
2555	0	32740	
2556	0	32809	
2557	0	32780	
2558	0	32664	
2559	0	32660	
2560	0	32717	
2561	0	32832	
2562	0	32880	
2563	0	32828	
2564	0	32828	
2565	0	32886	
2566	0	32872	
2567	0	32860	
2568	0	32816	
2569	0	32820	
2570	0	32732	
2571	0	32716	
2572	0	32580	
2573	0	32501	
2574	0	32476	
2575	0	32612	
2576	0	32716	
2577	0	32912	
2578	0	33228	
2579	0	33301	
2580	0	33144	
2581	0	32944	
2582	0	32949	
2583	0	32820	
2584	0	32664	
2585	0	32724	
2586	0	32704	
2587	0	32756	
2588	0	32712	
2589	0	32928	
2590	0	32738	
2591	0	32760	
2592	0	32772	
2593	0	32645	
2594	0	32516	
2595	0	32548	
2596	0	32568	
2597	0	32621	
2598	0	32708	
2599	0	32821	
2600	0	32904	
2601	0	33016	
2602	0	33096	
2603	0	32940	
2604	0	32799	
2605	0	32548	
2606	0	32497	
2607	0	32684	
2608	0	32932	
2609	0	32992	
2610	0	32952	
2611	0	33020	
2612	0	32974	
2613	0	32868	
2614	0	32840	
2615	0	32724	
2616	0	32804	
2617	0	32780	
2618	0	32828	
2619	0	32764	
2620	0	32772	
2621	0	32724	
2622	0	32688	
2623	0	32836	
2624	0	32928	
2625	0	32672	
2626	0	32592	
2627	0	32484	
2628	0	32493	
2629	0	32540	
2630	0	32712	
2631	0	32770	
2632	0	32800	
2633	0	32846	
2634	0	32853	
2635	0	32792	
2636	0	32932	
2637	0	32980	
2638	0	32932	
2639	0	32876	
2640	0	32844	
2641	0	32824	
2642	0	32732	
2643	0	32844	
2644	0	32800	
2645	0	32624	
2646	0	32464	
2647	0	32484	
2648	0	32432	
2649	0	32500	
2650	0	32620	
2651	0	32836	
2652	0	33120	
2653	0	33120	
2654	0	33140	
2655	0	33140	
2656	0	33125	
2657	0	32952	
2658	0	32896	
2659	0	32948	
2660	0	32764	
2661	0	32812	
2662	0	32734	
2663	0	32632	
2664	0	32612	
2665	0	32640	
2666	0	32600	
2667	0	32644	
2668	0	32648	
2669	0	32652	
2670	0	32828	
2671	0	32780	
2672	0	32758	
2673	0	32754	
2674	0	32724	
2675	0	32712	
2676	0	32712	
2677	0	32676	
2678	0	32588	
2679	0	32420	
2680	0	32540	
2681	0	32700	
2682	0	32720	
2683	0	32977	
2684	0	33060	
2685	0	32997	
2686	0	33112	
2687	0	32992	
2688	0	32860	
2689	0	32932	
2690	0	32896	
2691	0	32876	
2692	0	32768	
2693	0	32769	
2694	0	32952	
2695	0	32748	
2696	0	32724	
2697	0	32544	
2698	0	32376	
2699	0	32376	
2700	0	32342	
2701	0	32484	
2702	0	32688	
2703	0	32880	
2704	0	33032	
2705	0	33084	
2706	0	33036	
2707	0	33068	
2708	0	33068	
2709	0	32836	
2710	0	32858	
2711	0	32808	
2712	0	32860	
2713	0	32844	
2714	0	32869	
2715	0	32676	
2716	0	32615	
2717	0	32568	
2718	0	32664	
2719	0	32704	
2720	0	32629	
2721	0	32624	
2722	0	32672	
2723	0	32616	
2724	0	32562	
2725	0	32628	
2726	0	32704	
2727	0	32741	
2728	0	32820	
2729	0	32800	
2730	0	32774	
2731	0	32728	
2732	0	32720	
2733	0	32756	
2734	0	32844	
2735	0	32928	
2736	0	32968	
2737	0	32846	
2738	0	33012	
2739	0	33136	
2740	0	32980	
2741	0	32808	
2742	0	32840	
2743	0	32920	
2744	0	32962	
2745	0	32925	
2746	0	32840	
2747	0	32828	
2748	0	32820	
2749	0	32700	
2750	0	32640	
2751	0	32645	
2752	0	32652	
2753	0	32637	
2754	0	32672	
2755	0	32668	
2756	0	32732	
2757	0	32692	
2758	0	32788	
2759	0	32736	
2760	0	32820	
2761	0	32792	
2762	0	32816	
2763	0	32832	
2764	0	32740	
2765	0	32797	
2766	0	32756	
2767	0	32894	
2768	0	32789	
2769	0	32748	
2770	0	32704	
2771	0	32704	
2772	0	32750	
2773	0	32700	
2774	0	32738	
2775	0	32752	
2776	0	32772	
2777	0	32868	
2778	0	33048	
2779	0	32945	
2780	0	32780	
2781	0	32668	
2782	0	32682	
2783	0	32632	
2784	0	32676	
2785	0	32784	
2786	0	32676	
2787	0	32828	
2788	0	32756	
2789	0	32732	
2790	0	32736	
2791	0	32840	
2792	0	32889	
2793	0	32888	
2794	0	32805	
2795	0	32736	
2796	0	32772	
2797	0	32768	
2798	0	32784	
2799	0	32668	
2800	0	32526	
2801	0	32548	
2802	0	32644	
2803	0	32768	
2804	0	32928	
2805	0	32856	
2806	0	33020	
2807	0	33005	
2808	0	32976	
2809	0	32868	
2810	0	32839	
2811	0	32856	
2812	0	32774	
2813	0	32670	
2814	0	32728	
2815	0	32800	
2816	0	32877	
2817	0	32816	
2818	0	32736	
2819	0	32696	
2820	0	32644	
2821	0	32640	
2822	0	32644	
2823	0	32676	
2824	0	32780	
2825	0	32856	
2826	0	32884	
2827	0	32892	
2828	0	32872	
2829	0	32724	
2830	0	32628	
2831	0	32605	
2832	0	32664	
2833	0	32693	
2834	0	32676	
2835	0	32640	
2836	0	32664	
2837	0	32629	
2838	0	32645	
2839	0	32802	
2840	0	32992	
2841	0	33004	
2842	0	33125	
2843	0	33158	
2844	0	33308	
2845	0	32984	
2846	0	32832	
2847	0	32860	
2848	0	32672	
2849	0	32496	
2850	0	32396	
2851	0	32380	
2852	0	32532	
2853	0	32752	
2854	0	32896	
2855	0	33052	
2856	0	33064	
2857	0	32796	
2858	0	32696	
2859	0	32576	
2860	0	32484	
2861	0	32596	
2862	0	32704	
2863	0	32940	
2864	0	33036	
2865	0	33004	
2866	0	32996	
2867	0	33030	
2868	0	32896	
2869	0	32864	
2870	0	32772	
2871	0	32704	
2872	0	32668	
2873	0	32704	
2874	0	32756	
2875	0	32808	
2876	0	32768	
2877	0	32680	
2878	0	32664	
2879	0	32600	
2880	0	32752	
2881	0	32708	
2882	0	32734	
2883	0	32804	
2884	0	32844	
2885	0	32880	
2886	0	32752	
2887	0	32832	
2888	0	32808	
2889	0	32640	
2890	0	32468	
2891	0	32588	
2892	0	32596	
2893	0	32708	
2894	0	32884	
2895	0	32900	
2896	0	32900	
2897	0	32932	
2898	0	32916	
2899	0	32876	
2900	0	32821	
2901	0	32744	
2902	0	32800	
2903	0	32828	
2904	0	32877	
2905	0	32840	
2906	0	32868	
2907	0	32916	
2908	0	33036	
2909	0	32936	
2910	0	32836	
2911	0	32798	
2912	0	32696	
2913	0	32636	
2914	0	32544	
2915	0	32590	
2916	0	32584	
2917	0	32684	
2918	0	32728	
2919	0	32757	
2920	0	32684	
2921	0	32792	
2922	0	32824	
2923	0	32796	
2924	0	32800	
2925	0	32790	
2926	0	32692	
2927	0	32832	
2928	0	32836	
2929	0	32780	
2930	0	32800	
2931	0	32814	
2932	0	32744	
2933	0	32796	
2934	0	32879	
2935	0	32874	
2936	0	32988	
2937	0	32860	
2938	0	32768	
2939	0	32709	
2940	0	32740	
2941	0	32736	
2942	0	32788	
2943	0	32784	
2944	0	32776	
2945	0	32820	
2946	0	32772	
2947	0	32668	
2948	0	32660	
2949	0	32696	
2950	0	32738	
2951	0	32684	
2952	0	32724	
2953	0	32697	
2954	0	32540	
2955	0	32568	
2956	0	32604	
2957	0	32752	
2958	0	32892	
2959	0	33220	
2960	0	33396	
2961	0	33396	
2962	0	33512	
2963	0	33132	
2964	0	32848	
2965	0	32605	
2966	0	32424	
2967	0	32540	
2968	0	32600	
2969	0	32548	
2970	0	32584	
2971	0	32636	
2972	0	32598	
2973	0	32609	
2974	0	32676	
2975	0	32736	
2976	0	32840	
2977	0	32904	
2978	0	32876	
2979	0	32908	
2980	0	33008	
2981	0	32772	
2982	0	32676	
2983	0	32656	
2984	0	32516	
2985	0	32500	
2986	0	32488	
2987	0	32584	
2988	0	32685	
2989	0	32876	
2990	0	32976	
2991	0	32988	
2992	0	33012	
2993	0	33072	
2994	0	32940	
2995	0	32680	
2996	0	32748	
2997	0	32920	
2998	0	33060	
2999	0	33064	
3000	0	32908	
3001	0	32904	
3002	0	32846	
3003	0	32748	
3004	0	32696	
3005	0	32528	
3006	0	32384	
3007	0	32584	
3008	0	32620	
3009	0	32712	
3010	0	32706	
3011	0	32760	
3012	0	32828	
3013	0	32712	
3014	0	32760	
3015	0	32904	
3016	0	32894	
3017	0	32844	
3018	0	32877	
3019	0	32976	
3020	0	32864	
3021	0	32748	
3022	0	32732	
3023	0	32680	
3024	0	32728	
3025	0	32632	
3026	0	32768	
3027	0	32700	
3028	0	32416	
3029	0	32516	
3030	0	32636	
3031	0	32924	
3032	0	33012	
3033	0	33101	
3034	0	33112	
3035	0	33128	
3036	0	32836	
3037	0	32668	
3038	0	32568	
3039	0	32540	
3040	0	32516	
3041	0	32560	
3042	0	32804	
3043	0	32988	
3044	0	33028	
3045	0	33008	
3046	0	33164	
3047	0	32860	
3048	0	32652	
3049	0	32552	
3050	0	32676	
3051	0	32588	
3052	0	32664	
3053	0	32824	
3054	0	32816	
3055	0	32804	
3056	0	32753	
3057	0	32724	
3058	0	32688	
3059	0	32788	
3060	0	32552	
3061	0	32464	
3062	0	32477	
3063	0	32656	
3064	0	32813	
3065	0	32988	
3066	0	33056	
3067	0	33060	
3068	0	32997	
3069	0	33008	
3070	0	33052	
3071	0	32840	
3072	0	32672	
3073	0	32812	
3074	0	32752	
3075	0	32709	
3076	0	32677	
3077	0	32712	
3078	0	32733	
3079	0	32793	
3080	0	32776	
3081	0	32844	
3082	0	32788	
3083	0	32752	
3084	0	32704	
3085	0	32697	
3086	0	32796	
3087	0	32828	
3088	0	32856	
3089	0	32632	
3090	0	32640	
3091	0	32628	
3092	0	32685	
3093	0	32716	
3094	0	32800	
3095	0	32880	
3096	0	33080	
3097	0	33073	
3098	0	32966	
3099	0	32996	
3100	0	32800	
3101	0	32734	
3102	0	32752	
3103	0	32768	
3104	0	32708	
3105	0	32776	
3106	0	32814	
3107	0	32768	
3108	0	32780	
3109	0	32716	
3110	0	32776	
3111	0	32664	
3112	0	32684	
3113	0	32640	
3114	0	32664	
3115	0	32745	
3116	0	32710	
3117	0	32844	
3118	0	32656	
3119	0	32628	
3120	0	32580	
3121	0	32636	
3122	0	32664	
3123	0	32752	
3124	0	33000	
3125	0	33008	
3126	0	32836	
3127	0	32988	
3128	0	33020	
3129	0	33122	
3130	0	32888	
3131	0	32780	
3132	0	32640	
3133	0	32480	
3134	0	32464	
3135	0	32476	
3136	0	32604	
3137	0	32680	
3138	0	32612	
3139	0	32800	
3140	0	32968	
3141	0	33004	
3142	0	33204	
3143	0	33364	
3144	0	33008	
3145	0	32628	
3146	0	32452	
3147	0	32524	
3148	0	32660	
3149	0	32628	
3150	0	32736	
3151	0	32980	
3152	0	32948	
3153	0	32733	
3154	0	32576	
3155	0	32548	
3156	0	32696	
3157	0	32812	
3158	0	32972	
3159	0	33128	
3160	0	33160	
3161	0	33064	
3162	0	32869	
3163	0	32956	
3164	0	32692	
3165	0	32520	
3166	0	32532	
3167	0	32588	
3168	0	32552	
3169	0	32556	
3170	0	32628	
3171	0	32660	
3172	0	32632	
3173	0	32756	
3174	0	32877	
3175	0	32828	
3176	0	32888	
3177	0	32940	
3178	0	32868	
3179	0	32736	
3180	0	32764	
3181	0	32784	
3182	0	32804	
3183	0	32808	
3184	0	32745	
3185	0	32836	
3186	0	32758	
3187	0	32704	
3188	0	32764	
3189	0	32660	
3190	0	32750	
3191	0	32824	
3192	0	32782	
3193	0	32756	
3194	0	32744	
3195	0	32812	
3196	0	32776	
3197	0	32748	
3198	0	32848	
3199	0	32920	
3200	0	32892	
3201	0	32824	
3202	0	32884	
3203	0	32904	
3204	0	32773	
3205	0	32676	
3206	0	32608	
3207	0	32631	
3208	0	32724	
3209	0	32696	
3210	0	32740	
3211	0	32740	
3212	0	32784	
3213	0	32636	
3214	0	32580	
3215	0	32708	
3216	0	32828	
3217	0	32812	
3218	0	32820	
3219	0	32909	
3220	0	32936	
3221	0	32968	
3222	0	32940	
3223	0	32924	
3224	0	32852	
3225	0	32628	
3226	0	32456	
3227	0	32524	
3228	0	32680	
3229	0	32736	
3230	0	32760	
3231	0	32920	
3232	0	33024	
3233	0	33070	
3234	0	33045	
3235	0	33084	
3236	0	32976	
3237	0	32652	
3238	0	32605	
3239	0	32647	
3240	0	32636	
3241	0	32704	
3242	0	32756	
3243	0	32744	
3244	0	32776	
3245	0	32740	
3246	0	32840	
3247	0	32952	
3248	0	32896	
3249	0	32800	
3250	0	32672	
3251	0	32700	
3252	0	32637	
3253	0	32612	
3254	0	32656	
3255	0	32668	
3256	0	32700	
3257	0	32704	
3258	0	32776	
3259	0	32756	
3260	0	32728	
3261	0	32824	
3262	0	32813	
3263	0	32780	
3264	0	32748	
3265	0	32804	
3266	0	32878	
3267	0	32848	
3268	0	32806	
3269	0	32812	
3270	0	32645	
3271	0	32504	
3272	0	32540	
3273	0	32580	
3274	0	32748	
3275	0	32890	
3276	0	33010	
3277	0	33060	
3278	0	33148	
3279	0	33152	
3280	0	33028	
3281	0	32900	
3282	0	32932	
3283	0	32798	
3284	0	32800	
3285	0	32732	
3286	0	32796	
3287	0	32744	
3288	0	32722	
3289	0	32624	
3290	0	32748	
3291	0	32820	
3292	0	32748	
3293	0	32448	
3294	0	32400	
3295	0	32548	
3296	0	32676	
3297	0	32728	
3298	0	32912	
3299	0	33084	
3300	0	33164	
3301	0	33029	
3302	0	32968	
3303	0	32980	
3304	0	32788	
3305	0	32596	
3306	0	32558	
3307	0	32600	
3308	0	32590	
3309	0	32521	
3310	0	32456	
3311	0	32572	
3312	0	32648	
3313	0	32740	
3314	0	32812	
3315	0	32868	
3316	0	33052	
3317	0	33016	
3318	0	32996	
3319	0	32936	
3320	0	32909	
3321	0	32748	
3322	0	32808	
3323	0	32764	
3324	0	32761	
3325	0	32740	
3326	0	32604	
3327	0	32497	
3328	0	32592	
3329	0	32680	
3330	0	32808	
3331	0	32836	
3332	0	32736	
3333	0	32768	
3334	0	32888	
3335	0	32876	
3336	0	32794	
3337	0	32868	
3338	0	32852	
3339	0	32872	
3340	0	32820	
3341	0	32872	
3342	0	33004	
3343	0	32780	
3344	0	32632	
3345	0	32712	
3346	0	32768	
3347	0	32784	
3348	0	32788	
3349	0	32870	
3350	0	32860	
3351	0	32862	
3352	0	32956	
3353	0	32757	
3354	0	32740	
3355	0	32724	
3356	0	32736	
3357	0	32672	
3358	0	32608	
3359	0	32756	
3360	0	32672	
3361	0	32716	
3362	0	32621	
3363	0	32669	
3364	0	32645	
3365	0	32688	
3366	0	32900	
3367	0	33004	
3368	0	32960	
3369	0	32936	
3370	0	32834	
3371	0	32832	
3372	0	32764	
3373	0	32760	
3374	0	32781	
3375	0	32748	
3376	0	32716	
3377	0	32676	
3378	0	32720	
3379	0	32772	
3380	0	32792	
3381	0	32728	
3382	0	32700	
3383	0	32776	
3384	0	32672	
3385	0	32696	
3386	0	32740	
3387	0	32829	
3388	0	32812	
3389	0	32752	
3390	0	32693	
3391	0	32772	
3392	0	32768	
3393	0	32820	
3394	0	32740	
3395	0	32773	
3396	0	32856	
3397	0	32992	
3398	0	32940	
3399	0	32937	
3400	0	32860	
3401	0	32816	
3402	0	32904	
3403	0	32868	
3404	0	32857	
3405	0	32924	
3406	0	32816	
3407	0	32712	
3408	0	32756	
3409	0	32716	
3410	0	32740	
3411	0	32580	
3412	0	32488	
3413	0	32536	
3414	0	32576	
3415	0	32649	
3416	0	32888	
3417	0	32816	
3418	0	33064	
3419	0	33040	
3420	0	32976	
3421	0	32992	
3422	0	32892	
3423	0	32769	
3424	0	32668	
3425	0	32640	
3426	0	32692	
3427	0	32612	
3428	0	32668	
3429	0	32616	
3430	0	32632	
3431	0	32692	
3432	0	32636	
3433	0	32616	
3434	0	32596	
3435	0	32600	
3436	0	32604	
3437	0	32668	
3438	0	32957	
3439	0	33012	
3440	0	33012	
3441	0	32968	
3442	0	33064	
3443	0	32972	
3444	0	32884	
3445	0	32752	
3446	0	32812	
3447	0	33048	
3448	0	33120	
3449	0	33068	
3450	0	33000	
3451	0	32780	
3452	0	32524	
3453	0	32408	
3454	0	32160	
3455	0	32312	
3456	0	32464	
3457	0	32636	
3458	0	32804	
3459	0	32844	
3460	0	32892	
3461	0	32972	
3462	0	32964	
3463	0	32868	
3464	0	32834	
3465	0	32792	
3466	0	32854	
3467	0	32864	
3468	0	32912	
3469	0	32916	
3470	0	32996	
3471	0	32728	
3472	0	32640	
3473	0	32612	
3474	0	32752	
3475	0	32744	
3476	0	32750	
3477	0	32664	
3478	0	32780	
3479	0	32686	
3480	0	32596	
3481	0	32660	
3482	0	32657	
3483	0	32760	
3484	0	32780	
3485	0	32836	
3486	0	32748	
3487	0	32828	
3488	0	32932	
3489	0	32868	
3490	0	32988	
3491	0	32916	
3492	0	32768	
3493	0	32732	
3494	0	32765	
3495	0	32768	
3496	0	32800	
3497	0	32968	
3498	0	32900	
3499	0	32812	
3500	0	32796	
3501	0	32791	
3502	0	32784	
3503	0	32716	
3504	0	32724	
3505	0	32708	
3506	0	32740	
3507	0	32736	
3508	0	32868	
3509	0	33000	
3510	0	32876	
3511	0	32828	
3512	0	32708	
3513	0	32756	
3514	0	32728	
3515	0	32728	
3516	0	32756	
3517	0	32736	
3518	0	32764	
3519	0	32708	
3520	0	32725	
3521	0	32742	
3522	0	32847	
3523	0	32773	
3524	0	32816	
3525	0	32712	
3526	0	32704	
3527	0	32788	
3528	0	32792	
3529	0	32732	
3530	0	32748	
3531	0	32716	
3532	0	32722	
3533	0	32660	
3534	0	32600	
3535	0	32660	
3536	0	32710	
3537	0	32778	
3538	0	32948	
3539	0	32948	
3540	0	32941	
3541	0	33108	
3542	0	32984	
3543	0	33096	
3544	0	32924	
3545	0	32788	
3546	0	32732	
3547	0	32749	
3548	0	32677	
3549	0	32720	
3550	0	32644	
3551	0	32633	
3552	0	32716	
3553	0	32741	
3554	0	32808	
3555	0	32916	
3556	0	32876	
3557	0	32780	
3558	0	32708	
3559	0	32720	
3560	0	32445	
3561	0	32340	
3562	0	32500	
3563	0	32636	
3564	0	32800	
3565	0	32792	
3566	0	32952	
3567	0	33012	
3568	0	32948	
3569	0	32972	
3570	0	33114	
3571	0	32952	
3572	0	32880	
3573	0	32900	
3574	0	32724	
3575	0	32760	
3576	0	32781	
3577	0	32776	
3578	0	32700	
3579	0	32721	
3580	0	32825	
3581	0	32784	
3582	0	32728	
3583	0	32700	
3584	0	32772	
3585	0	32784	
3586	0	32740	
3587	0	32388	
3588	0	32448	
3589	0	32724	
3590	0	32788	
3591	0	32864	
3592	0	32988	
3593	0	33085	
3594	0	33108	
3595	0	33100	
3596	0	32912	
3597	0	32908	
3598	0	32805	
3599	0	32813	
3600	0	32734	
3601	0	32708	
3602	0	32708	
3603	0	32640	
3604	0	32661	
3605	0	32600	
3606	0	32646	
3607	0	32652	
3608	0	32760	
3609	0	32712	
3610	0	32776	
3611	0	32740	
3612	0	32808	
3613	0	32740	
3614	0	32812	
3615	0	32808	
3616	0	32804	
3617	0	32736	
3618	0	32762	
3619	0	32828	
3620	0	32928	
3621	0	32992	
3622	0	32964	
3623	0	32824	
3624	0	32788	
3625	0	32733	
3626	0	32781	
3627	0	32732	
3628	0	32672	
3629	0	32584	
3630	0	32708	
3631	0	32692	
3632	0	32661	
3633	0	32548	
3634	0	32552	
3635	0	32460	
3636	0	32572	
3637	0	32704	
3638	0	32724	
3639	0	32868	
3640	0	33048	
3641	0	33205	
3642	0	33281	
3643	0	33340	
3644	0	33324	
3645	0	32872	
3646	0	32548	
3647	0	32604	
3648	0	32644	
3649	0	32612	
3650	0	32548	
3651	0	32712	
3652	0	32644	
3653	0	32661	
3654	0	32692	
3655	0	32800	
3656	0	32812	
3657	0	32896	
3658	0	32892	
3659	0	32904	
3660	0	32768	
3661	0	32767	
3662	0	32700	
3663	0	32709	
3664	0	32740	
3665	0	32702	
3666	0	32717	
3667	0	32780	
3668	0	32751	
3669	0	32809	
3670	0	32810	
3671	0	32829	
3672	0	32756	
3673	0	32800	
3674	0	32804	
3675	0	32753	
3676	0	32757	
3677	0	32780	
3678	0	32712	
3679	0	32865	
3680	0	32876	
3681	0	32808	
3682	0	32782	
3683	0	32780	
3684	0	32741	
3685	0	32740	
3686	0	32724	
3687	0	32664	
3688	0	32668	
3689	0	32704	
3690	0	32748	
3691	0	32733	
3692	0	32748	
3693	0	32784	
3694	0	32824	
3695	0	32830	
3696	0	32818	
3697	0	32668	
3698	0	32477	
3699	0	32584	
3700	0	32664	
3701	0	32820	
3702	0	32982	
3703	0	33024	
3704	0	33097	
3705	0	33036	
3706	0	32968	
3707	0	32952	
3708	0	32920	
3709	0	32733	
3710	0	32681	
3711	0	32740	
3712	0	32748	
3713	0	32648	
3714	0	32606	
3715	0	32612	
3716	0	32532	
3717	0	32532	
3718	0	32573	
3719	0	32536	
3720	0	32437	
3721	0	32564	
3722	0	32628	
3723	0	32820	
3724	0	33064	
3725	0	33320	
3726	0	33100	
3727	0	32984	
3728	0	33012	
3729	0	33133	
3730	0	33048	
3731	0	33152	
3732	0	33016	
3733	0	32908	
3734	0	32956	
3735	0	32628	
3736	0	32520	
3737	0	32620	
3738	0	32576	
3739	0	32568	
3740	0	32628	
3741	0	32576	
3742	0	32692	
3743	0	32644	
3744	0	32748	
3745	0	32716	
3746	0	32748	
3747	0	32704	
3748	0	32686	
3749	0	32652	
3750	0	32700	
3751	0	32640	
3752	0	32688	
3753	0	32804	
3754	0	32804	
3755	0	32804	
3756	0	32908	
3757	0	32948	
3758	0	32876	
3759	0	32832	
3760	0	32788	
3761	0	32740	
3762	0	32696	
3763	0	32684	
3764	0	32700	
3765	0	32756	
3766	0	32764	
3767	0	32804	
3768	0	32788	
3769	0	32752	
3770	0	32842	
3771	0	32996	
3772	0	32840	
3773	0	32728	
3774	0	32820	
3775	0	32792	
3776	0	32764	
3777	0	32766	
3778	0	32692	
3779	0	32856	
3780	0	32828	
3781	0	32800	
3782	0	32818	
3783	0	32772	
3784	0	32780	
3785	0	32740	
3786	0	32748	
3787	0	32864	
3788	0	32778	
3789	0	32720	
3790	0	32768	
3791	0	32700	
3792	0	32712	
3793	0	32748	
3794	0	32772	
3795	0	32788	
3796	0	32836	
3797	0	32826	
3798	0	32733	
3799	0	32788	
3800	0	32816	
3801	0	32704	
3802	0	32596	
3803	0	32621	
3804	0	32696	
3805	0	32768	
3806	0	32756	
3807	0	32792	
3808	0	32573	
3809	0	32680	
3810	0	32765	
3811	0	32672	
3812	0	32565	
3813	0	32679	
3814	0	32774	
3815	0	32704	
3816	0	32696	
3817	0	32960	
3818	0	33128	
3819	0	33024	
3820	0	32704	
3821	0	32820	
3822	0	33144	
3823	0	33200	
3824	0	33304	
3825	0	33490	
3826	0	33336	
3827	0	32992	
3828	0	32848	
3829	0	32840	
3830	0	32704	
3831	0	32476	
3832	0	32568	
3833	0	32528	
3834	0	32564	
3835	0	32632	
3836	0	32612	
3837	0	32596	
3838	0	32532	
3839	0	32509	
3840	0	32600	
3841	0	32676	
3842	0	32692	
3843	0	32676	
3844	0	32704	
3845	0	32824	
3846	0	32648	
3847	0	32462	
3848	0	32516	
3849	0	32665	
3850	0	32757	
3851	0	32904	
3852	0	33096	
3853	0	33128	
3854	0	33100	
3855	0	32960	
3856	0	32860	
3857	0	32812	
3858	0	32720	
3859	0	32669	
3860	0	32701	
3861	0	32704	
3862	0	32812	
3863	0	32764	
3864	0	32704	
3865	0	32702	
3866	0	32724	
3867	0	32800	
3868	0	32748	
3869	0	32872	
3870	0	32825	
3871	0	32772	
3872	0	32832	
3873	0	32644	
3874	0	32789	
3875	0	32816	
3876	0	32732	
3877	0	32780	
3878	0	32692	
3879	0	32776	
3880	0	32704	
3881	0	32744	
3882	0	32708	
3883	0	32762	
3884	0	32868	
3885	0	32912	
3886	0	32924	
3887	0	32860	
3888	0	32817	
3889	0	32900	
3890	0	32932	
3891	0	32864	
3892	0	32816	
3893	0	32752	
3894	0	32697	
3895	0	32688	
3896	0	32670	
3897	0	32775	
3898	0	32804	
3899	0	32744	
3900	0	32686	
3901	0	32652	
3902	0	32676	
3903	0	32804	
3904	0	32776	
3905	0	32704	
3906	0	32656	
3907	0	32840	
3908	0	32652	
3909	0	32646	
3910	0	32577	
3911	0	32672	
3912	0	32836	
3913	0	32796	
3914	0	32821	
3915	0	32812	
3916	0	32808	
3917	0	32852	
3918	0	33084	
3919	0	33012	
3920	0	32836	
3921	0	32996	
3922	0	32948	
3923	0	32960	
3924	0	32784	
3925	0	32688	
3926	0	32812	
3927	0	32792	
3928	0	32688	
3929	0	32556	
3930	0	32468	
3931	0	32492	
3932	0	32656	
3933	0	32926	
3934	0	33032	
3935	0	32932	
3936	0	33064	
3937	0	33072	
3938	0	33108	
3939	0	33036	
3940	0	33020	
3941	0	32824	
3942	0	32596	
3943	0	32596	
3944	0	32660	
3945	0	32708	
3946	0	32656	
3947	0	32556	
3948	0	32599	
3949	0	32588	
3950	0	32644	
3951	0	32660	
3952	0	32748	
3953	0	32668	
3954	0	32748	
3955	0	32756	
3956	0	32716	
3957	0	32744	
3958	0	32692	
3959	0	32720	
3960	0	32840	
3961	0	32903	
3962	0	32880	
3963	0	32856	
3964	0	32760	
3965	0	32764	
3966	0	32724	
3967	0	32728	
3968	0	32728	
3969	0	32776	
3970	0	32768	
3971	0	32848	
3972	0	32748	
3973	0	32736	
3974	0	32772	
3975	0	32784	
3976	0	32660	
3977	0	32496	
3978	0	32600	
3979	0	32724	
3980	0	32988	
3981	0	33069	
3982	0	33236	
3983	0	33040	
3984	0	33044	
3985	0	32864	
3986	0	32808	
3987	0	32732	
3988	0	32644	
3989	0	32656	
3990	0	32672	
3991	0	32700	
3992	0	32766	
3993	0	32720	
3994	0	32744	
3995	0	32780	
3996	0	32812	
3997	0	32798	
3998	0	32696	
3999	0	32684	
4000	0	32704	
4001	0	32652	
4002	0	32804	
4003	0	32804	
4004	0	32580	
4005	0	32516	
4006	0	32676	
4007	0	32608	
4008	0	32636	
4009	0	32698	
4010	0	32828	
4011	0	32928	
4012	0	33164	
4013	0	33220	
4014	0	33332	
4015	0	33287	
4016	0	32860	
4017	0	32533	
4018	0	32408	
4019	0	32400	
4020	0	32476	
4021	0	32680	
4022	0	32840	
4023	0	32896	
4024	0	32832	
4025	0	32880	
4026	0	32908	
4027	0	33096	
4028	0	33022	
4029	0	32760	
4030	0	32917	
4031	0	32844	
4032	0	32734	
4033	0	32524	
4034	0	32500	
4035	0	32376	
4036	0	32472	
4037	0	32660	
4038	0	32793	
4039	0	32960	
4040	0	33088	
4041	0	32982	
4042	0	32949	
4043	0	32933	
4044	0	33004	
4045	0	32896	
4046	0	32792	
4047	0	32692	
4048	0	32544	
4049	0	32612	
4050	0	32672	
4051	0	32644	
4052	0	32668	
4053	0	32732	
4054	0	32792	
4055	0	32821	
4056	0	32749	
4057	0	32793	
4058	0	32812	
4059	0	32776	
4060	0	32748	
4061	0	32796	
4062	0	32716	
4063	0	32593	
4064	0	32502	
4065	0	32524	
4066	0	32664	
4067	0	32761	
4068	0	32904	
4069	0	32924	
4070	0	33056	
4071	0	32984	
4072	0	32952	
4073	0	32932	
4074	0	33064	
4075	0	32916	
4076	0	32926	
4077	0	32860	
4078	0	32848	
4079	0	32804	
4080	0	32706	
4081	0	32560	
4082	0	32596	
4083	0	32700	
4084	0	32776	
4085	0	32682	
4086	0	32524	
4087	0	32524	
4088	0	32592	
4089	0	32704	
4090	0	32820	
4091	0	32898	
4092	0	32932	
4093	0	33177	
4094	0	33170	
4095	0	33078	
4096	0	33068	
4097	0	32848	
4098	0	32702	
4099	0	32685	
4100	0	32689	
4101	0	32748	
4102	0	32770	
4103	0	32744	
4104	0	32672	
4105	0	32392	
4106	0	32232	
4107	0	32292	
4108	0	32448	
4109	0	32572	
4110	0	32740	
4111	0	32936	
4112	0	33112	
4113	0	33140	
4114	0	33237	
4115	0	33112	
4116	0	33060	
4117	0	32989	
4118	0	32864	
4119	0	32892	
4120	0	32904	
4121	0	32497	
4122	0	32328	
4123	0	32468	
4124	0	32576	
4125	0	32706	
4126	0	32876	
4127	0	32981	
4128	0	32972	
4129	0	32832	
4130	0	32870	
4131	0	32948	
4132	0	32788	
4133	0	32744	
4134	0	32820	
4135	0	32756	
4136	0	32665	
4137	0	32696	
4138	0	32678	
4139	0	32504	
4140	0	32476	
4141	0	32568	
4142	0	32612	
4143	0	32660	
4144	0	32748	
4145	0	32786	
4146	0	32804	
4147	0	33144	
4148	0	33120	
4149	0	33008	
4150	0	32948	
4151	0	32973	
4152	0	33036	
4153	0	32804	
4154	0	32784	
4155	0	32628	
4156	0	32468	
4157	0	32460	
4158	0	32516	
4159	0	32728	
4160	0	32752	
4161	0	32788	
4162	0	32892	
4163	0	33038	
4164	0	32972	
4165	0	32932	
4166	0	32868	
4167	0	32680	
4168	0	32704	
4169	0	32656	
4170	0	32768	
4171	0	32820	
4172	0	32770	
4173	0	32908	
4174	0	32848	
4175	0	32817	
4176	0	32820	
4177	0	32696	
4178	0	32636	
4179	0	32616	
4180	0	32657	
4181	0	32813	
4182	0	32776	
4183	0	32564	
4184	0	32500	
4185	0	32496	
4186	0	32696	
4187	0	32956	
4188	0	33132	
4189	0	33160	
4190	0	33220	
4191	0	33120	
4192	0	32804	
4193	0	32676	
4194	0	32652	
4195	0	32696	
4196	0	32620	
4197	0	32736	
4198	0	32640	
4199	0	32464	
4200	0	32328	
4201	0	32409	
4202	0	32680	
4203	0	32820	
4204	0	33145	
4205	0	33356	
4206	0	33264	
4207	0	33152	
4208	0	32884	
4209	0	32892	
4210	0	32864	
4211	0	32680	
4212	0	32597	
4213	0	32760	
4214	0	32784	
4215	0	32780	
4216	0	32924	
4217	0	32748	
4218	0	32644	
4219	0	32692	
4220	0	32676	
4221	0	32692	
4222	0	32720	
4223	0	32808	
4224	0	32712	
4225	0	32652	
4226	0	32656	
4227	0	32728	
4228	0	32808	
4229	0	32796	
4230	0	32656	
4231	0	32780	
4232	0	32848	
4233	0	32836	
4234	0	32823	
4235	0	32768	
4236	0	32844	
4237	0	32793	
4238	0	32748	
4239	0	32820	
4240	0	32772	
4241	0	32764	
4242	0	32692	
4243	0	32709	
4244	0	32748	
4245	0	32677	
4246	0	32706	
4247	0	32688	
4248	0	32760	
4249	0	32733	
4250	0	32816	
4251	0	32768	
4252	0	32812	
4253	0	32860	
4254	0	32804	
4255	0	32900	
4256	0	32841	
4257	0	32792	
4258	0	32856	
4259	0	32628	
4260	0	32470	
4261	0	32544	
4262	0	32580	
4263	0	32568	
4264	0	32488	
4265	0	32740	
4266	0	32832	
4267	0	32992	
4268	0	33064	
4269	0	33209	
4270	0	33278	
4271	0	33308	
4272	0	33440	
4273	0	33152	
4274	0	32848	
4275	0	32732	
4276	0	32700	
4277	0	32828	
4278	0	32668	
4279	0	32468	
4280	0	32464	
4281	0	32448	
4282	0	32552	
4283	0	32616	
4284	0	32604	
4285	0	32664	
4286	0	32740	
4287	0	32868	
4288	0	32774	
4289	0	32869	
4290	0	32856	
4291	0	32857	
4292	0	32768	
4293	0	32664	
4294	0	32664	
4295	0	32730	
4296	0	32748	
4297	0	32668	
4298	0	32712	
4299	0	32720	
4300	0	32736	
4301	0	32772	
4302	0	32908	
4303	0	32936	
4304	0	32832	
4305	0	32916	
4306	0	32920	
4307	0	32820	
4308	0	32560	
4309	0	32404	
4310	0	32456	
4311	0	32668	
4312	0	32732	
4313	0	32824	
4314	0	32976	
4315	0	33068	
4316	0	33028	
4317	0	33064	
4318	0	33080	
4319	0	32968	
4320	0	32836	
4321	0	32825	
4322	0	32960	
4323	0	32804	
4324	0	32716	
4325	0	32740	
4326	0	32732	
4327	0	32649	
4328	0	32612	
4329	0	32624	
4330	0	32660	
4331	0	32708	
4332	0	32732	
4333	0	32748	
4334	0	32716	
4335	0	32676	
4336	0	32788	
4337	0	32733	
4338	0	32758	
4339	0	32784	
4340	0	32724	
4341	0	32780	
4342	0	32844	
4343	0	32812	
4344	0	32672	
4345	0	32400	
4346	0	32508	
4347	0	32648	
4348	0	32776	
4349	0	32884	
4350	0	33041	
4351	0	33140	
4352	0	33092	
4353	0	32816	
4354	0	32788	
4355	0	32728	
4356	0	32660	
4357	0	32636	
4358	0	32668	
4359	0	32556	
4360	0	32540	
4361	0	32764	
4362	0	32904	
4363	0	33136	
4364	0	33292	
4365	0	33220	
4366	0	32980	
4367	0	32864	
4368	0	32688	
4369	0	32684	
4370	0	32584	
4371	0	32472	
4372	0	32637	
4373	0	32857	
4374	0	33244	
4375	0	33352	
4376	0	33237	
4377	0	32896	
4378	0	32680	
4379	0	32706	
4380	0	32736	
4381	0	32652	
4382	0	32560	
4383	0	32620	
4384	0	32576	
4385	0	32528	
4386	0	32562	
4387	0	32712	
4388	0	32712	
4389	0	32712	
4390	0	32752	
4391	0	32712	
4392	0	32774	
4393	0	32724	
4394	0	32792	
4395	0	32808	
4396	0	32740	
4397	0	32804	
4398	0	32764	
4399	0	32836	
4400	0	32772	
4401	0	32872	
4402	0	32856	
4403	0	32810	
4404	0	32772	
4405	0	32768	
4406	0	32768	
4407	0	32764	
4408	0	32808	
4409	0	32770	
4410	0	32808	
4411	0	32856	
4412	0	32812	
4413	0	32856	
4414	0	32800	
4415	0	32848	
4416	0	32790	
4417	0	32788	
4418	0	32796	
4419	0	32840	
4420	0	32828	
4421	0	32780	
4422	0	32824	
4423	0	32776	
4424	0	32720	
4425	0	32688	
4426	0	32713	
4427	0	32696	
4428	0	32696	
4429	0	32732	
4430	0	32734	
4431	0	32728	
4432	0	32824	
4433	0	32856	
4434	0	32846	
4435	0	32852	
4436	0	32860	
4437	0	32834	
4438	0	32836	
4439	0	32764	
4440	0	32816	
4441	0	32692	
4442	0	32792	
4443	0	32744	
4444	0	32740	
4445	0	32784	
4446	0	32732	
4447	0	32910	
4448	0	32924	
4449	0	32801	
4450	0	32484	
4451	0	32340	
4452	0	32468	
4453	0	32624	
4454	0	32764	
4455	0	32983	
4456	0	33049	
4457	0	33112	
4458	0	32996	
4459	0	33048	
4460	0	33104	
4461	0	32820	
4462	0	32740	
4463	0	32740	
4464	0	32877	
4465	0	32700	
4466	0	32548	
4467	0	32470	
4468	0	32568	
4469	0	32524	
4470	0	32644	
4471	0	32744	
4472	0	33020	
4473	0	33144	
4474	0	33124	
4475	0	33198	
4476	0	33076	
4477	0	32708	
4478	0	32656	
4479	0	32804	
4480	0	32624	
4481	0	32500	
4482	0	32504	
4483	0	32582	
4484	0	32572	
4485	0	32680	
4486	0	32732	
4487	0	32796	
4488	0	32904	
4489	0	32832	
4490	0	32764	
4491	0	32769	
4492	0	32796	
4493	0	32836	
4494	0	32848	
4495	0	32848	
4496	0	32760	
4497	0	32752	
4498	0	32812	
4499	0	32796	
4500	0	32796	
4501	0	32720	
4502	0	32752	
4503	0	32764	
4504	0	32652	
4505	0	32684	
4506	0	32772	
4507	0	32756	
4508	0	32744	
4509	0	32640	
4510	0	32557	
4511	0	32588	
4512	0	32636	
4513	0	32744	
4514	0	32848	
4515	0	32968	
4516	0	33056	
4517	0	33120	
4518	0	33104	
4519	0	32988	
4520	0	32900	
4521	0	32900	
4522	0	32840	
4523	0	32725	
4524	0	32708	
4525	0	32732	
4526	0	32668	
4527	0	32688	
4528	0	32685	
4529	0	32644	
4530	0	32628	
4531	0	32752	
4532	0	32756	
4533	0	32792	
4534	0	32756	
4535	0	32740	
4536	0	32688	
4537	0	32468	
4538	0	32504	
4539	0	32552	
4540	0	32660	
4541	0	32744	
4542	0	32980	
4543	0	32917	
4544	0	32976	
4545	0	32916	
4546	0	32608	
4547	0	32572	
4548	0	32532	
4549	0	32668	
4550	0	32856	
4551	0	33036	
4552	0	33172	
4553	0	33524	
4554	0	33444	
4555	0	33316	
4556	0	33024	
4557	0	33063	
4558	0	32837	
4559	0	32648	
4560	0	32564	
4561	0	32512	
4562	0	32528	
4563	0	32516	
4564	0	32664	
4565	0	32716	
4566	0	32692	
4567	0	32633	
4568	0	32612	
4569	0	32544	
4570	0	32440	
4571	0	32644	
4572	0	32754	
4573	0	32712	
4574	0	32808	
4575	0	32792	
4576	0	32832	
4577	0	32924	
4578	0	32933	
4579	0	32900	
4580	0	32936	
4581	0	32750	
4582	0	32708	
4583	0	32676	
4584	0	32688	
4585	0	32704	
4586	0	32724	
4587	0	32700	
4588	0	32726	
4589	0	32712	
4590	0	32688	
4591	0	32644	
4592	0	32644	
4593	0	32756	
4594	0	32792	
4595	0	32928	
4596	0	33028	
4597	0	33144	
4598	0	33044	
4599	0	32952	
4600	0	32848	
4601	0	32832	
4602	0	32828	
4603	0	32804	
4604	0	32736	
4605	0	32669	
4606	0	32653	
4607	0	32720	
4608	0	32664	
4609	0	32692	
4610	0	32676	
4611	0	32732	
4612	0	32788	
4613	0	32740	
4614	0	32740	
4615	0	32768	
4616	0	32775	
4617	0	32780	
4618	0	32776	
4619	0	32786	
4620	0	32768	
4621	0	32644	
4622	0	32540	
4623	0	32640	
4624	0	32734	
4625	0	32857	
4626	0	32920	
4627	0	32956	
4628	0	33092	
4629	0	33100	
4630	0	32936	
4631	0	32808	
4632	0	32920	
4633	0	32757	
4634	0	32778	
4635	0	32800	
4636	0	32864	
4637	0	32868	
4638	0	32870	
4639	0	32808	
4640	0	32724	
4641	0	32708	
4642	0	32726	
4643	0	32620	
4644	0	32648	
4645	0	32624	
4646	0	32712	
4647	0	32760	
4648	0	32772	
4649	0	32768	
4650	0	32764	
4651	0	32712	
4652	0	32672	
4653	0	32688	
4654	0	32592	
4655	0	32496	
4656	0	32588	
4657	0	32636	
4658	0	32776	
4659	0	32952	
4660	0	33100	
4661	0	32841	
4662	0	32888	
4663	0	32800	
4664	0	32887	
4665	0	32868	
4666	0	32732	
4667	0	32892	
4668	0	33013	
4669	0	32960	
4670	0	33080	
4671	0	33132	
4672	0	32944	
4673	0	32688	
4674	0	32656	
4675	0	32704	
4676	0	32889	
4677	0	32756	
4678	0	32678	
4679	0	32628	
4680	0	32596	
4681	0	32592	
4682	0	32620	
4683	0	32736	
4684	0	32712	
4685	0	32696	
4686	0	32748	
4687	0	32756	
4688	0	32736	
4689	0	32829	
4690	0	32932	
4691	0	32881	
4692	0	32910	
4693	0	32652	
4694	0	32612	
4695	0	32580	
4696	0	32568	
4697	0	32592	
4698	0	32680	
4699	0	32808	
4700	0	32960	
4701	0	32996	
4702	0	32944	
4703	0	33024	
4704	0	33060	
4705	0	32568	
4706	0	32408	
4707	0	32548	
4708	0	32676	
4709	0	32812	
4710	0	32901	
4711	0	32880	
4712	0	32984	
4713	0	32972	
4714	0	32868	
4715	0	32798	
4716	0	32964	
4717	0	32856	
4718	0	32924	
4719	0	32942	
4720	0	32740	
4721	0	32820	
4722	0	32752	
4723	0	32660	
4724	0	32732	
4725	0	32684	
4726	0	32692	
4727	0	32660	
4728	0	32600	
4729	0	32640	
4730	0	32664	
4731	0	32676	
4732	0	32748	
4733	0	32876	
4734	0	32978	
4735	0	32856	
4736	0	32868	
4737	0	32840	
4738	0	32796	
4739	0	32764	
4740	0	32748	
4741	0	32756	
4742	0	32752	
4743	0	32772	
4744	0	32736	
4745	0	32712	
4746	0	32684	
4747	0	32688	
4748	0	32669	
4749	0	32684	
4750	0	32654	
4751	0	32764	
4752	0	32800	
4753	0	32812	
4754	0	32768	
4755	0	32788	
4756	0	32836	
4757	0	32660	
4758	0	32692	
4759	0	32672	
4760	0	32637	
4761	0	32580	
4762	0	32804	
4763	0	32828	
4764	0	32880	
4765	0	33060	
4766	0	33012	
4767	0	32976	
4768	0	33049	
4769	0	33112	
4770	0	32980	
4771	0	32648	
4772	0	32660	
4773	0	32732	
4774	0	32826	
4775	0	32741	
4776	0	32664	
4777	0	32636	
4778	0	32676	
4779	0	32832	
4780	0	32824	
4781	0	32736	
4782	0	32708	
4783	0	32744	
4784	0	32740	
4785	0	32732	
4786	0	32800	
4787	0	32720	
4788	0	32556	
4789	0	32524	
4790	0	32600	
4791	0	32708	
4792	0	32884	
4793	0	32972	
4794	0	33008	
4795	0	33016	
4796	0	32942	
4797	0	32884	
4798	0	32856	
4799	0	32786	
4800	0	32724	
4801	0	32752	
4802	0	32760	
4803	0	32832	
4804	0	32788	
4805	0	32624	
4806	0	32726	
4807	0	32644	
4808	0	32644	
4809	0	32572	
4810	0	32456	
4811	0	32648	
4812	0	32776	
4813	0	32860	
4814	0	32952	
4815	0	32972	
4816	0	32894	
4817	0	32901	
4818	0	32880	
4819	0	32856	
4820	0	32921	
4821	0	32750	
4822	0	32737	
4823	0	32808	
4824	0	32884	
4825	0	32782	
4826	0	32720	
4827	0	32669	
4828	0	32644	
4829	0	32676	
4830	0	32670	
4831	0	32748	
4832	0	32724	
4833	0	32728	
4834	0	32692	
4835	0	32748	
4836	0	32804	
4837	0	32749	
4838	0	32792	
4839	0	32786	
4840	0	32896	
4841	0	32932	
4842	0	32832	
4843	0	32816	
4844	0	32844	
4845	0	32789	
4846	0	32772	
4847	0	32764	
4848	0	32734	
4849	0	32688	
4850	0	32756	
4851	0	32748	
4852	0	32746	
4853	0	32802	
4854	0	32812	
4855	0	32761	
4856	0	32764	
4857	0	32825	
4858	0	32772	
4859	0	32752	
4860	0	32688	
4861	0	32752	
4862	0	32881	
4863	0	32816	
4864	0	32820	
4865	0	32824	
4866	0	32848	
4867	0	32820	
4868	0	32684	
4869	0	32768	
4870	0	32728	
4871	0	32784	
4872	0	32764	
4873	0	32936	
4874	0	32844	
4875	0	32600	
4876	0	32536	
4877	0	32628	
4878	0	32654	
4879	0	32732	
4880	0	32942	
4881	0	33052	
4882	0	33144	
4883	0	33056	
4884	0	32996	
4885	0	32756	
4886	0	32529	
4887	0	32580	
4888	0	32487	
4889	0	32520	
4890	0	32600	
4891	0	32932	
4892	0	32980	
4893	0	32936	
4894	0	33006	
4895	0	33020	
4896	0	32980	
4897	0	32689	
4898	0	32644	
4899	0	32668	
4900	0	32630	
4901	0	32608	
4902	0	32604	
4903	0	32620	
4904	0	32736	
4905	0	32792	
4906	0	33004	
4907	0	33180	
4908	0	33096	
4909	0	32884	
4910	0	32776	
4911	0	32836	
4912	0	32732	
4913	0	32796	
4914	0	32741	
4915	0	32716	
4916	0	32676	
4917	0	32700	
4918	0	32644	
4919	0	32620	
4920	0	32676	
4921	0	32740	
4922	0	32788	
4923	0	32812	
4924	0	32772	
4925	0	32708	
4926	0	32700	
4927	0	32720	
4928	0	32760	
4929	0	32775	
4930	0	32756	
4931	0	32724	
4932	0	32802	
4933	0	32800	
4934	0	32768	
4935	0	32868	
4936	0	32912	
4937	0	32840	
4938	0	32840	
4939	0	32784	
4940	0	32792	
4941	0	32752	
4942	0	32860	
4943	0	32788	
4944	0	32724	
4945	0	32768	
4946	0	32708	
4947	0	32720	
4948	0	32800	
4949	0	32682	
4950	0	32774	
4951	0	32732	
4952	0	32730	
4953	0	32580	
4954	0	32532	
4955	0	32480	
4956	0	32692	
4957	0	32660	
4958	0	32860	
4959	0	32924	
4960	0	32896	
4961	0	33036	
4962	0	33069	
4963	0	33028	
4964	0	33036	
4965	0	32884	
4966	0	32842	
4967	0	32884	
4968	0	32744	
4969	0	32624	
4970	0	32760	
4971	0	32692	
4972	0	32752	
4973	0	32824	
4974	0	32856	
4975	0	32856	
4976	0	33040	
4977	0	32968	
4978	0	33004	
4979	0	32814	
4980	0	32668	
4981	0	32600	
4982	0	32716	
4983	0	32677	
4984	0	32652	
4985	0	32612	
4986	0	32613	
4987	0	32632	
4988	0	32748	
4989	0	32732	
4990	0	32729	
4991	0	32712	
4992	0	32737	
4993	0	32752	
4994	0	32749	
4995	0	32776	
4996	0	32806	
4997	0	32764	
4998	0	32796	
4999	0	32832	
5000	0	32853	
5001	0	32798	
5002	0	32824	
5003	0	32816	
5004	0	32892	
5005	0	32868	
5006	0	32792	
5007	0	32744	
5008	0	32712	
5009	0	32676	
5010	0	32696	
5011	0	32724	
5012	0	32704	
5013	0	32752	
5014	0	32728	
5015	0	32764	
5016	0	32852	
5017	0	32784	
5018	0	32740	
5019	0	32830	
5020	0	33016	
5021	0	32964	
5022	0	33008	
5023	0	32928	
5024	0	32908	
5025	0	32896	
5026	0	32776	
5027	0	32788	
5028	0	32672	
5029	0	32636	
5030	0	32669	
5031	0	32664	
5032	0	32704	
5033	0	32828	
5034	0	32744	
5035	0	32772	
5036	0	32772	
5037	0	32733	
5038	0	32748	
5039	0	32820	
5040	0	32896	
5041	0	32908	
5042	0	32916	
5043	0	32900	
5044	0	32768	
5045	0	32648	
5046	0	32624	
5047	0	32630	
5048	0	32668	
5049	0	32700	
5050	0	32744	
5051	0	32812	
5052	0	32792	
5053	0	32776	
5054	0	32852	
5055	0	32796	
5056	0	32796	
5057	0	32852	
5058	0	32772	
5059	0	32792	
5060	0	32832	
5061	0	32748	
5062	0	32820	
5063	0	32765	
5064	0	32752	
5065	0	32776	
5066	0	32784	
5067	0	32828	
5068	0	32777	
5069	0	32844	
5070	0	32900	
5071	0	32929	
5072	0	32956	
5073	0	32805	
5074	0	32804	
5075	0	32680	
5076	0	32704	
5077	0	32672	
5078	0	32728	
5079	0	32720	
5080	0	32752	
5081	0	32704	
5082	0	32774	
5083	0	32744	
5084	0	32745	
5085	0	32740	
5086	0	32724	
5087	0	32724	
5088	0	32689	
5089	0	32732	
5090	0	32636	
5091	0	32620	
5092	0	32670	
5093	0	32744	
5094	0	32780	
5095	0	32820	
5096	0	32676	
5097	0	32660	
5098	0	32596	
5099	0	32644	
5100	0	32836	
5101	0	32872	
5102	0	32792	
5103	0	32808	
5104	0	32869	
5105	0	32980	
5106	0	33145	
5107	0	33137	
5108	0	33184	
5109	0	33152	
5110	0	32984	
5111	0	32876	
5112	0	32812	
5113	0	32768	
5114	0	32640	
5115	0	32600	
5116	0	32632	
5117	0	32589	
5118	0	32528	
5119	0	32647	
5120	0	32608	
5121	0	32628	
5122	0	32696	
5123	0	32784	
5124	0	32788	
5125	0	32792	
5126	0	32713	
5127	0	32788	
5128	0	32772	
5129	0	32728	
5130	0	32740	
5131	0	32772	
5132	0	32844	
5133	0	33028	
5134	0	32916	
5135	0	32814	
5136	0	32809	
5137	0	32792	
5138	0	32732	
5139	0	32696	
5140	0	32684	
5141	0	32712	
5142	0	32724	
5143	0	32740	
5144	0	32728	
5145	0	32780	
5146	0	32788	
5147	0	32780	
5148	0	32740	
5149	0	32765	
5150	0	32732	
5151	0	32768	
5152	0	32748	
5153	0	32788	
5154	0	32716	
5155	0	32785	
5156	0	32796	
5157	0	32768	
5158	0	32796	
5159	0	32832	
5160	0	32800	
5161	0	32796	
5162	0	32800	
5163	0	32829	
5164	0	32796	
5165	0	32693	
5166	0	32792	
5167	0	32772	
5168	0	32740	
5169	0	32728	
5170	0	32740	
5171	0	32788	
5172	0	32772	
5173	0	32756	
5174	0	32752	
5175	0	32816	
5176	0	32792	
5177	0	32764	
5178	0	32796	
5179	0	32788	
5180	0	32768	
5181	0	32794	
5182	0	32780	
5183	0	32748	
5184	0	32773	
5185	0	32764	
5186	0	32648	
5187	0	32720	
5188	0	32648	
5189	0	32732	
5190	0	32773	
5191	0	32748	
5192	0	32832	
5193	0	32820	
5194	0	32840	
5195	0	32932	
5196	0	32866	
5197	0	32876	
5198	0	32932	
5199	0	32903	
5200	0	32808	
5201	0	32816	
5202	0	32788	
5203	0	32725	
5204	0	32800	
5205	0	32768	
5206	0	32712	
5207	0	32677	
5208	0	32708	
5209	0	32692	
5210	0	32684	
5211	0	32668	
5212	0	32781	
5213	0	32778	
5214	0	32577	
5215	0	32516	
5216	0	32632	
5217	0	32641	
5218	0	32744	
5219	0	32888	
5220	0	32924	
5221	0	33120	
5222	0	33300	
5223	0	33244	
5224	0	33164	
5225	0	33004	
5226	0	32766	
5227	0	32580	
5228	0	32592	
5229	0	32524	
5230	0	32456	
5231	0	32556	
5232	0	32552	
5233	0	32752	
5234	0	32728	
5235	0	32780	
5236	0	32832	
5237	0	32804	
5238	0	32712	
5239	0	32740	
5240	0	32724	
5241	0	32744	
5242	0	32752	
5243	0	32744	
5244	0	32844	
5245	0	32844	
5246	0	32853	
5247	0	32856	
5248	0	32828	
5249	0	32841	
5250	0	32765	
5251	0	32784	
5252	0	32808	
5253	0	32812	
5254	0	32768	
5255	0	32792	
5256	0	32760	
5257	0	32756	
5258	0	32796	
5259	0	32716	
5260	0	32724	
5261	0	32756	
5262	0	32726	
5263	0	32980	
5264	0	32968	
5265	0	32804	
5266	0	32788	
5267	0	32793	
5268	0	32680	
5269	0	32684	
5270	0	32681	
5271	0	32724	
5272	0	32724	
5273	0	32824	
5274	0	32712	
5275	0	32745	
5276	0	32753	
5277	0	32772	
5278	0	32768	
5279	0	32848	
5280	0	32825	
5281	0	32816	
5282	0	32814	
5283	0	32816	
5284	0	32792	
5285	0	32788	
5286	0	32750	
5287	0	32728	
5288	0	32784	
5289	0	32724	
5290	0	32736	
5291	0	32788	
5292	0	32816	
5293	0	32801	
5294	0	32784	
5295	0	32796	
5296	0	32800	
5297	0	32732	
5298	0	32736	
5299	0	32829	
5300	0	32840	
5301	0	32824	
5302	0	32740	
5303	0	32788	
5304	0	32876	
5305	0	32786	
5306	0	32765	
5307	0	32856	
5308	0	32890	
5309	0	32696	
5310	0	32724	
5311	0	32549	
5312	0	32593	
5313	0	32596	
5314	0	32636	
5315	0	32744	
5316	0	32380	
5317	0	32148	
5318	0	32372	
5319	0	32570	
5320	0	32846	
5321	0	33152	
5322	0	33440	
5323	0	33704	
5324	0	33772	
5325	0	33588	
5326	0	33224	
5327	0	33056	
5328	0	32352	
5329	0	31836	
5330	0	31836	
5331	0	32135	
5332	0	32436	
5333	0	32708	
5334	0	32916	
5335	0	33120	
5336	0	33280	
5337	0	33744	
5338	0	33564	
5339	0	33345	
5340	0	33312	
5341	0	33544	
5342	0	33096	
5343	0	32496	
5344	0	32285	
5345	0	32336	
5346	0	32524	
5347	0	32909	
5348	0	32540	
5349	0	32205	
5350	0	32420	
5351	0	32824	
5352	0	32268	
5353	0	30624	
5354	0	30156	
5355	0	29724	
5356	0	28472	
5357	0	28796	
5358	0	30300	
5359	0	32444	
5360	0	34288	
5361	0	34948	
5362	0	35212	
5363	0	35528	
5364	0	35468	
5365	0	35208	
5366	0	35768	
5367	0	36296	
5368	0	34808	
5369	0	33320	
5370	0	31190	
5371	0	26498	
5372	0	24716	
5373	0	26524	
5374	0	28132	
5375	0	28836	
5376	0	28436	
5377	0	32752	
5378	0	38904	
5379	0	43428	
5380	0	44976	
5381	0	44468	
5382	0	43684	
5383	0	42716	
5384	0	38772	
5385	0	33814	
5386	0	30200	
5387	0	30180	
5388	0	28064	
5389	0	22640	
5390	0	19936	
5391	0	23164	
5392	0	28044	
5393	0	32568	
5394	0	36230	
5395	0	37908	
5396	0	39232	
5397	0	37408	
5398	0	35640	
5399	0	34508	
5400	0	34500	
5401	0	33556	
5402	0	31272	
5403	0	30250	
5404	0	30917	
5405	0	31356	
5406	0	30381	
5407	0	28304	
5408	0	24106	
5409	0	19632	
5410	0	20952	
5411	0	26440	
5412	0	31785	
5413	0	33508	
5414	0	35541	
5415	0	39284	
5416	0	41504	
5417	0	43136	
5418	0	44404	
5419	0	43696	
5420	0	42728	
5421	0	40180	
5422	0	37164	
5423	0	35096	
5424	0	32156	
5425	0	27092	
5426	0	22690	
5427	0	21700	
5428	0	22956	
5429	0	22112	
5430	0	18770	
5431	0	14020	
5432	0	13412	
5433	0	17748	
5434	0	25980	
5435	0	35788	
5436	0	45240	
5437	0	51572	
5438	0	54936	
5439	0	57024	
5440	0	55712	
5441	0	51368	
5442	0	47364	
5443	0	42260	
5444	0	36876	
5445	0	32436	
5446	0	27840	
5447	0	25356	
5448	0	23464	
5449	0	22204	
5450	0	20652	
5451	0	20644	
5452	0	21702	
5453	0	22797	
5454	0	24344	
5455	0	27620	
5456	0	31060	
5457	0	34756	
5458	0	37040	
5459	0	38444	
5460	0	39552	
5461	0	39072	
5462	0	36016	
5463	0	33520	
5464	0	30644	
5465	0	31520	
5466	0	32164	
5467	0	32720	
5468	0	33792	
5469	0	34332	
5470	0	34384	
5471	0	31880	
5472	0	26120	
5473	0	22442	
5474	0	23484	
5475	0	28200	
5476	0	33360	
5477	0	36628	
5478	0	38808	
5479	0	38988	
5480	0	38028	
5481	0	39024	
5482	0	40632	
5483	0	41148	
5484	0	38180	
5485	0	35636	
5486	0	33212	
5487	0	30916	
5488	0	31164	
5489	0	31108	
5490	0	30557	
5491	0	30396	
5492	0	31896	
5493	0	31465	
5494	0	28724	
5495	0	28168	
5496	0	29560	
5497	0	29884	
5498	0	30402	
5499	0	31196	
5500	0	32030	
5501	0	31920	
5502	0	30580	
5503	0	31060	
5504	0	32222	
5505	0	33124	
5506	0	33156	
5507	0	31848	
5508	0	31200	
5509	0	32477	
5510	0	34040	
5511	0	34752	
5512	0	34512	
5513	0	34276	
5514	0	34772	
5515	0	35248	
5516	0	35504	
5517	0	35520	
5518	0	32292	
5519	0	31756	
5520	0	31688	
5521	0	30300	
5522	0	28152	
5523	0	29156	
5524	0	32060	
5525	0	32692	
5526	0	32748	
5527	0	34404	
5528	0	36696	
5529	0	36692	
5530	0	33513	
5531	0	31216	
5532	0	30204	
5533	0	32558	
5534	0	32962	
5535	0	29864	
5536	0	30836	
5537	0	32589	
5538	0	34872	
5539	0	37260	
5540	0	40876	
5541	0	41400	
5542	0	37464	
5543	0	29712	
5544	0	26344	
5545	0	28596	
5546	0	30900	
5547	0	33368	
5548	0	35236	
5549	0	36873	
5550	0	35368	
5551	0	32880	
5552	0	33092	
5553	0	34309	
5554	0	34184	
5555	0	33389	
5556	0	31856	
5557	0	31296	
5558	0	31544	
5559	0	31500	
5560	0	31328	
5561	0	31392	
5562	0	30956	
5563	0	31168	
5564	0	30368	
5565	0	30064	
5566	0	31048	
5567	0	32636	
5568	0	32853	
5569	0	32560	
5570	0	33468	
5571	0	32628	
5572	0	31320	
5573	0	31272	
5574	0	31602	
5575	0	32312	
5576	0	32880	
5577	0	33189	
5578	0	33432	
5579	0	33321	
5580	0	33300	
5581	0	33548	
5582	0	33440	
5583	0	33164	
5584	0	33262	
5585	0	33208	
5586	0	33112	
5587	0	33164	
5588	0	33116	
5589	0	33136	
5590	0	33132	
5591	0	33116	
5592	0	33088	
5593	0	33069	
5594	0	33005	
5595	0	32990	
5596	0	32852	
5597	0	32836	
5598	0	32752	
5599	0	32888	
5600	0	32884	
5601	0	32952	
5602	0	32912	
5603	0	32992	
5604	0	32864	
5605	0	32948	
5606	0	33022	
5607	0	32900	
5608	0	32777	
5609	0	32744	
5610	0	32492	
5611	0	32132	
5612	0	32056	
5613	0	32320	
5614	0	32848	
5615	0	32970	
5616	0	32920	
5617	0	32756	
5618	0	32984	
5619	0	33361	
5620	0	33288	
5621	0	33132	
5622	0	32856	
5623	0	32469	
5624	0	32248	
5625	0	32184	
5626	0	32052	
5627	0	32040	
5628	0	31836	
5629	0	31896	
5630	0	32000	
5631	0	31300	
5632	0	30868	
5633	0	30892	
5634	0	31456	
5635	0	31456	
5636	0	31206	
5637	0	32408	
5638	0	33900	
5639	0	35200	
5640	0	35892	
5641	0	36228	
5642	0	36732	
5643	0	36544	
5644	0	36836	
5645	0	35476	
5646	0	34528	
5647	0	33464	
5648	0	32080	
5649	0	31576	
5650	0	31580	
5651	0	31176	
5652	0	31272	
5653	0	31257	
5654	0	30980	
5655	0	30984	
5656	0	30948	
5657	0	31152	
5658	0	31924	
5659	0	32640	
5660	0	33232	
5661	0	33636	
5662	0	33668	
5663	0	33220	
5664	0	32736	
5665	0	32636	
5666	0	33112	
5667	0	33164	
5668	0	32864	
5669	0	32684	
5670	0	32670	
5671	0	32624	
5672	0	32662	
5673	0	32692	
5674	0	32752	
5675	0	32804	
5676	0	32804	
5677	0	32774	
5678	0	32772	
5679	0	32800	
5680	0	32856	
5681	0	33008	
5682	0	33172	
5683	0	33216	
5684	0	33072	
5685	0	32744	
5686	0	32756	
5687	0	32912	
5688	0	32900	
5689	0	33008	
5690	0	32920	
5691	0	32692	
5692	0	32660	
5693	0	32768	
5694	0	32860	
5695	0	32736	
5696	0	32788	
5697	0	32813	
5698	0	32750	
5699	0	32686	
5700	0	32637	
5701	0	32680	
5702	0	32740	
5703	0	32791	
5704	0	32804	
5705	0	32801	
5706	0	32768	
5707	0	32812	
5708	0	32756	
5709	0	32800	
5710	0	32737	
5711	0	32784	
5712	0	32752	
5713	0	32840	
5714	0	32814	
5715	0	32880	
5716	0	32824	
5717	0	32780	
5718	0	32832	
5719	0	32960	
5720	0	32980	
5721	0	32960	
5722	0	32856	
5723	0	32824	
5724	0	32829	
5725	0	32773	
5726	0	32768	
5727	0	32744	
5728	0	32836	
5729	0	32836	
5730	0	32736	
5731	0	32740	
5732	0	32794	
5733	0	32776	
5734	0	32744	
5735	0	32776	
5736	0	32744	
5737	0	32796	
5738	0	32776	
5739	0	32788	
5740	0	32854	
5741	0	32776	
5742	0	32760	
5743	0	32736	
5744	0	32704	
5745	0	32720	
5746	0	32676	
5747	0	32592	
5748	0	32678	
5749	0	32536	
5750	0	32284	
5751	0	32300	
5752	0	32412	
5753	0	32612	
5754	0	32676	
5755	0	33028	
5756	0	33120	
5757	0	33252	
5758	0	33232	
5759	0	33360	
5760	0	33308	
5761	0	33040	
5762	0	32992	
5763	0	32996	
5764	0	32948	
5765	0	32592	
5766	0	32384	
5767	0	32456	
5768	0	32524	
5769	0	32417	
5770	0	32148	
5771	0	32196	
5772	0	32432	
5773	0	32821	
5774	0	33464	
5775	0	33612	
5776	0	33620	
5777	0	33600	
5778	0	33660	
5779	0	33248	
5780	0	32884	
5781	0	32368	
5782	0	32148	
5783	0	32104	
5784	0	32455	
5785	0	32852	
5786	0	32780	
5787	0	32488	
5788	0	32252	
5789	0	32372	
5790	0	32616	
5791	0	32904	
5792	0	33060	
5793	0	32724	
5794	0	32309	
5795	0	32280	
5796	0	32496	
5797	0	32736	
5798	0	32700	
5799	0	32889	
5800	0	33036	
5801	0	33024	
5802	0	33060	
5803	0	33156	
5804	0	33108	
5805	0	33116	
5806	0	32972	
5807	0	32976	
5808	0	32948	
5809	0	33044	
5810	0	32984	
5811	0	32652	
5812	0	32664	
5813	0	32656	
5814	0	32705	
5815	0	32676	
5816	0	32728	
5817	0	32796	
5818	0	32728	
5819	0	32671	
5820	0	32653	
5821	0	32668	
5822	0	32664	
5823	0	32748	
5824	0	32700	
5825	0	32760	
5826	0	32756	
5827	0	32648	
5828	0	32744	
5829	0	32712	
5830	0	32676	
5831	0	32760	
5832	0	32900	
5833	0	32884	
5834	0	32878	
5835	0	32857	
5836	0	32868	
5837	0	32800	
5838	0	32712	
5839	0	32728	
5840	0	32686	
5841	0	32688	
5842	0	32656	
5843	0	32548	
5844	0	32536	
5845	0	32592	
5846	0	32677	
5847	0	32736	
5848	0	32636	
5849	0	32436	
5850	0	32516	
5851	0	32688	
5852	0	32864	
5853	0	33056	
5854	0	33273	
5855	0	33144	
5856	0	33156	
5857	0	32868	
5858	0	32820	
5859	0	32768	
5860	0	32772	
5861	0	32913	
5862	0	32948	
5863	0	32936	
5864	0	32620	
5865	0	32112	
5866	0	32040	
5867	0	32261	
5868	0	32564	
5869	0	32728	
5870	0	33077	
5871	0	33252	
5872	0	33253	
5873	0	33340	
5874	0	33504	
5875	0	33672	
5876	0	33373	
5877	0	33268	
5878	0	32768	
5879	0	32581	
5880	0	32516	
5881	0	32328	
5882	0	32452	
5883	0	32504	
5884	0	32456	
5885	0	32716	
5886	0	32776	
5887	0	32468	
5888	0	32368	
5889	0	32464	
5890	0	32448	
5891	0	32692	
5892	0	32844	
5893	0	32704	
5894	0	32613	
5895	0	32684	
5896	0	32506	
5897	0	32220	
5898	0	32316	
5899	0	32508	
5900	0	32724	
5901	0	33008	
5902	0	33264	
5903	0	33464	
5904	0	33532	
5905	0	33445	
5906	0	33154	
5907	0	32936	
5908	0	32776	
5909	0	32718	
5910	0	32568	
5911	0	32668	
5912	0	32620	
5913	0	32604	
5914	0	32548	
5915	0	32576	
5916	0	32716	
5917	0	32764	
5918	0	32784	
5919	0	32696	
5920	0	32636	
5921	0	32732	
5922	0	32822	
5923	0	32748	
5924	0	32708	
5925	0	32676	
5926	0	32756	
5927	0	32700	
5928	0	32806	
5929	0	32780	
5930	0	32776	
5931	0	32760	
5932	0	32708	
5933	0	32628	
5934	0	32668	
5935	0	32804	
5936	0	32652	
5937	0	32536	
5938	0	32636	
5939	0	32660	
5940	0	32837	
5941	0	32868	
5942	0	32948	
5943	0	32944	
5944	0	33108	
5945	0	33172	
5946	0	32908	
5947	0	32820	
5948	0	32620	
5949	0	32540	
5950	0	32708	
5951	0	32877	
5952	0	33092	
5953	0	33077	
5954	0	32608	
5955	0	32604	
5956	0	32624	
5957	0	32740	
5958	0	32944	
5959	0	33160	
5960	0	33212	
5961	0	33025	
5962	0	32940	
5963	0	32737	
5964	0	32565	
5965	0	32476	
5966	0	32504	
5967	0	32516	
5968	0	32612	
5969	0	32584	
5970	0	32604	
5971	0	32696	
5972	0	32557	
5973	0	32357	
5974	0	32424	
5975	0	32640	
5976	0	32732	
5977	0	32612	
5978	0	32816	
5979	0	32981	
5980	0	33098	
5981	0	33120	
5982	0	33100	
5983	0	33132	
5984	0	32864	
5985	0	32612	
5986	0	32762	
5987	0	32852	
5988	0	32796	
5989	0	33000	
5990	0	33044	
5991	0	32976	
5992	0	32932	
5993	0	32676	
5994	0	32673	
5995	0	32656	
5996	0	32825	
5997	0	32780	
5998	0	32780	
5999	0	32869	
6000	0	32850	
6001	0	32685	
6002	0	32660	
6003	0	32652	
6004	0	32580	
6005	0	32644	
6006	0	32214	
6007	0	32050	
6008	0	32177	
6009	0	32552	
6010	0	32764	
6011	0	33076	
6012	0	33260	
6013	0	33328	
6014	0	33312	
6015	0	33124	
6016	0	33036	
6017	0	32900	
6018	0	32820	
6019	0	32748	
6020	0	32736	
6021	0	32669	
6022	0	32500	
6023	0	32596	
6024	0	32604	
6025	0	32360	
6026	0	32344	
6027	0	32584	
6028	0	32888	
6029	0	33060	
6030	0	33301	
6031	0	33464	
6032	0	33504	
6033	0	33040	
6034	0	32668	
6035	0	32581	
6036	0	32744	
6037	0	32708	
6038	0	32908	
6039	0	32888	
6040	0	32846	
6041	0	32832	
6042	0	32800	
6043	0	32740	
6044	0	32636	
6045	0	32628	
6046	0	32636	
6047	0	32688	
6048	0	32560	
6049	0	32500	
6050	0	32526	
6051	0	32568	
6052	0	32584	
6053	0	32628	
6054	0	32753	
6055	0	32849	
6056	0	32833	
6057	0	32680	
6058	0	32612	
6059	0	32652	
6060	0	32584	
6061	0	32676	
6062	0	32800	
6063	0	33084	
6064	0	32948	
6065	0	32736	
6066	0	32752	
6067	0	32732	
6068	0	32808	
6069	0	32900	
6070	0	32932	
6071	0	33132	
6072	0	33360	
6073	0	33415	
6074	0	33364	
6075	0	33141	
6076	0	32816	
6077	0	32864	
6078	0	32792	
6079	0	32584	
6080	0	32440	
6081	0	32520	
6082	0	32372	
6083	0	32380	
6084	0	32540	
6085	0	32608	
6086	0	32540	
6087	0	32485	
6088	0	32548	
6089	0	32708	
6090	0	32556	
6091	0	32672	
6092	0	32561	
6093	0	32304	
6094	0	32404	
6095	0	32760	
6096	0	32964	
6097	0	33178	
6098	0	33428	
6099	0	33556	
6100	0	33556	
6101	0	33260	
6102	0	32912	
6103	0	32796	
6104	0	32612	
6105	0	32736	
6106	0	32848	
6107	0	32940	
6108	0	32952	
6109	0	32864	
6110	0	32766	
6111	0	32653	
6112	0	32570	
6113	0	32564	
6114	0	32608	
6115	0	32580	
6116	0	32644	
6117	0	32660	
6118	0	32813	
6119	0	32772	
6120	0	32708	
6121	0	32736	
6122	0	32748	
6123	0	32608	
6124	0	32612	
6125	0	32440	
6126	0	32353	
6127	0	32452	
6128	0	32646	
6129	0	32844	
6130	0	33160	
6131	0	33185	
6132	0	33184	
6133	0	33045	
6134	0	32913	
6135	0	32940	
6136	0	32832	
6137	0	32772	
6138	0	32672	
6139	0	32728	
6140	0	32716	
6141	0	32710	
6142	0	32700	
6143	0	32732	
6144	0	32668	
6145	0	32648	
6146	0	32756	
6147	0	32756	
6148	0	32606	
6149	0	32492	
6150	0	32548	
6151	0	32656	
6152	0	32740	
6153	0	32556	
6154	0	32416	
6155	0	32588	
6156	0	32784	
6157	0	32828	
6158	0	32992	
6159	0	32968	
6160	0	33044	
6161	0	33264	
6162	0	33484	
6163	0	33756	
6164	0	33464	
6165	0	32970	
6166	0	32824	
6167	0	32872	
6168	0	32934	
6169	0	32832	
6170	0	32636	
6171	0	32436	
6172	0	32308	
6173	0	32270	
6174	0	32414	
6175	0	32360	
6176	0	32478	
6177	0	32468	
6178	0	32632	
6179	0	32748	
6180	0	32720	
6181	0	32696	
6182	0	32596	
6183	0	32608	
6184	0	32612	
6185	0	32804	
6186	0	33072	
6187	0	33312	
6188	0	33372	
6189	0	33132	
6190	0	33116	
6191	0	33148	
6192	0	33000	
6193	0	32832	
6194	0	32616	
6195	0	32620	
6196	0	32664	
6197	0	32700	
6198	0	32752	
6199	0	32676	
6200	0	32704	
6201	0	32660	
6202	0	32692	
6203	0	32704	
6204	0	32648	
6205	0	32688	
6206	0	32744	
6207	0	32476	
6208	0	32436	
6209	0	32558	
6210	0	32724	
6211	0	32812	
6212	0	32980	
6213	0	33076	
6214	0	33108	
6215	0	33104	
6216	0	32976	
6217	0	32984	
6218	0	32800	
6219	0	32824	
6220	0	32720	
6221	0	32752	
6222	0	32764	
6223	0	32708	
6224	0	32541	
6225	0	32276	
6226	0	32316	
6227	0	32469	
6228	0	32520	
6229	0	32616	
6230	0	32972	
6231	0	33176	
6232	0	33292	
6233	0	33228	
6234	0	33116	
6235	0	33144	
6236	0	33025	
6237	0	32844	
6238	0	32804	
6239	0	32708	
6240	0	32572	
6241	0	32589	
6242	0	32588	
6243	0	32632	
6244	0	32604	
6245	0	32652	
6246	0	32620	
6247	0	32756	
6248	0	32808	
6249	0	32780	
6250	0	32732	
6251	0	32636	
6252	0	32704	
6253	0	32564	
6254	0	32648	
6255	0	32657	
6256	0	32686	
6257	0	32772	
6258	0	32744	
6259	0	32720	
6260	0	32756	
6261	0	32948	
6262	0	33024	
6263	0	33132	
6264	0	33108	
6265	0	32984	
6266	0	32812	
6267	0	32544	
6268	0	32380	
6269	0	31892	
6270	0	32064	
6271	0	32472	
6272	0	32828	
6273	0	33208	
6274	0	33412	
6275	0	33720	
6276	0	34148	
6277	0	33532	
6278	0	33368	
6279	0	33102	
6280	0	32953	
6281	0	32624	
6282	0	32378	
6283	0	32308	
6284	0	32284	
6285	0	32384	
6286	0	32382	
6287	0	32464	
6288	0	32612	
6289	0	32624	
6290	0	32556	
6291	0	32620	
6292	0	32636	
6293	0	32704	
6294	0	32860	
6295	0	32669	
6296	0	32480	
6297	0	32404	
6298	0	32457	
6299	0	32670	
6300	0	32984	
6301	0	33164	
6302	0	33304	
6303	0	33110	
6304	0	33096	
6305	0	32860	
6306	0	32772	
6307	0	32720	
6308	0	32894	
6309	0	33092	
6310	0	32956	
6311	0	32764	
6312	0	32668	
6313	0	32656	
6314	0	32588	
6315	0	32800	
6316	0	32708	
6317	0	32700	
6318	0	32645	
6319	0	32732	
6320	0	32716	
6321	0	32768	
6322	0	32748	
6323	0	32728	
6324	0	32719	
6325	0	32732	
6326	0	32732	
6327	0	32780	
6328	0	32808	
6329	0	32852	
6330	0	32716	
6331	0	32692	
6332	0	32700	
6333	0	32633	
6334	0	32656	
6335	0	32800	
6336	0	32540	
6337	0	32464	
6338	0	32636	
6339	0	32788	
6340	0	33076	
6341	0	33252	
6342	0	33368	
6343	0	33472	
6344	0	33264	
6345	0	32998	
6346	0	32860	
6347	0	32762	
6348	0	32682	
6349	0	32524	
6350	0	32772	
6351	0	32732	
6352	0	32660	
6353	0	32656	
6354	0	32653	
6355	0	32728	
6356	0	32752	
6357	0	32752	
6358	0	32852	
6359	0	32740	
6360	0	32728	
6361	0	32645	
6362	0	32460	
6363	0	32616	
6364	0	32524	
6365	0	32652	
6366	0	32716	
6367	0	32732	
6368	0	32868	
6369	0	32848	
6370	0	32824	
6371	0	32668	
6372	0	32704	
6373	0	32576	
6374	0	32512	
6375	0	32552	
6376	0	32632	
6377	0	32869	
6378	0	32920	
6379	0	33156	
6380	0	33124	
6381	0	33296	
6382	0	33140	
6383	0	33100	
6384	0	33136	
6385	0	33232	
6386	0	33240	
6387	0	33166	
6388	0	33156	
6389	0	32976	
6390	0	32868	
6391	0	32600	
6392	0	32448	
6393	0	32348	
6394	0	32368	
6395	0	32466	
6396	0	32397	
6397	0	32336	
6398	0	32340	
6399	0	32448	
6400	0	32644	
6401	0	32800	
6402	0	32800	
6403	0	32848	
6404	0	32748	
6405	0	32820	
6406	0	32816	
6407	0	32828	
6408	0	32877	
6409	0	32960	
6410	0	33065	
6411	0	32904	
6412	0	32808	
6413	0	32672	
6414	0	32628	
6415	0	32720	
6416	0	32629	
6417	0	32740	
6418	0	32716	
6419	0	32704	
6420	0	32540	
6421	0	32480	
6422	0	32556	
6423	0	32576	
6424	0	32704	
6425	0	32716	
6426	0	32832	
6427	0	32964	
6428	0	33032	
6429	0	32960	
6430	0	33032	
6431	0	32932	
6432	0	32964	
6433	0	32964	
6434	0	32996	
6435	0	33092	
6436	0	32916	
6437	0	32792	
6438	0	32645	
6439	0	32604	
6440	0	32676	
6441	0	32668	
6442	0	32696	
6443	0	32640	
6444	0	32664	
6445	0	32664	
6446	0	32632	
6447	0	32648	
6448	0	32700	
6449	0	32688	
6450	0	32712	
6451	0	32728	
6452	0	32468	
6453	0	32132	
6454	0	32142	
6455	0	32256	
6456	0	32584	
6457	0	32968	
6458	0	33224	
6459	0	33504	
6460	0	33697	
6461	0	33536	
6462	0	33364	
6463	0	33197	
6464	0	32784	
6465	0	32844	
6466	0	32884	
6467	0	32660	
6468	0	32472	
6469	0	32676	
6470	0	32608	
6471	0	32652	
6472	0	32400	
6473	0	32566	
6474	0	32669	
6475	0	32616	
6476	0	32704	
6477	0	32780	
6478	0	32816	
6479	0	32888	
6480	0	32952	
6481	0	33088	
6482	0	33028	
6483	0	32937	
6484	0	32828	
6485	0	32908	
6486	0	32960	
6487	0	32857	
6488	0	32616	
6489	0	32404	
6490	0	32433	
6491	0	32524	
6492	0	32496	
6493	0	32540	
6494	0	32800	
6495	0	32960	
6496	0	32988	
6497	0	32940	
6498	0	32796	
6499	0	32800	
6500	0	32800	
6501	0	32808	
6502	0	32776	
6503	0	32844	
6504	0	32724	
6505	0	32700	
6506	0	32736	
6507	0	32760	
6508	0	32661	
6509	0	32676	
6510	0	32724	
6511	0	32712	
6512	0	32832	
6513	0	32700	
6514	0	32728	
6515	0	32736	
6516	0	32816	
6517	0	32861	
6518	0	32820	
6519	0	32736	
6520	0	32808	
6521	0	32900	
6522	0	32836	
6523	0	32776	
6524	0	32846	
6525	0	32740	
6526	0	32792	
6527	0	32876	
6528	0	32852	
6529	0	32876	
6530	0	32836	
6531	0	32660	
6532	0	32456	
6533	0	32504	
6534	0	32584	
6535	0	32718	
6536	0	32864	
6537	0	32900	
6538	0	32960	
6539	0	32928	
6540	0	32889	
6541	0	32972	
6542	0	32908	
6543	0	32792	
6544	0	32872	
6545	0	33092	
6546	0	32936	
6547	0	32880	
6548	0	32553	
6549	0	32660	
6550	0	32812	
6551	0	32760	
6552	0	32705	
6553	0	32632	
6554	0	32572	
6555	0	32608	
6556	0	32616	
6557	0	32673	
6558	0	32704	
6559	0	32845	
6560	0	32844	
6561	0	32828	
6562	0	32841	
6563	0	32525	
6564	0	32532	
6565	0	32552	
6566	0	32654	
6567	0	32736	
6568	0	32908	
6569	0	32884	
6570	0	32684	
6571	0	32565	
6572	0	32460	
6573	0	32440	
6574	0	32608	
6575	0	32948	
6576	0	33413	
6577	0	33824	
6578	0	33740	
6579	0	33580	
6580	0	33396	
6581	0	33180	
6582	0	32952	
6583	0	32604	
6584	0	32512	
6585	0	32316	
6586	0	32236	
6587	0	32262	
6588	0	32360	
6589	0	32552	
6590	0	32576	
6591	0	32400	
6592	0	32391	
6593	0	32550	
6594	0	32840	
6595	0	33004	
6596	0	32948	
6597	0	33080	
6598	0	32972	
6599	0	32920	
6600	0	32964	
6601	0	33016	
6602	0	33072	
6603	0	32928	
6604	0	32868	
6605	0	32804	
6606	0	32660	
6607	0	32620	
6608	0	32562	
6609	0	32500	
6610	0	32596	
6611	0	32696	
6612	0	32690	
6613	0	32796	
6614	0	32636	
6615	0	32592	
6616	0	32637	
6617	0	32776	
6618	0	32880	
6619	0	32926	
6620	0	32862	
6621	0	32920	
6622	0	32992	
6623	0	32802	
6624	0	32760	
6625	0	32744	
6626	0	32768	
6627	0	32798	
6628	0	32868	
6629	0	32948	
6630	0	32856	
6631	0	32786	
6632	0	32796	
6633	0	32788	
6634	0	32700	
6635	0	32788	
6636	0	32900	
6637	0	32920	
6638	0	32793	
6639	0	32792	
6640	0	32705	
6641	0	32644	
6642	0	32680	
6643	0	32752	
6644	0	32788	
6645	0	32704	
6646	0	32732	
6647	0	32741	
6648	0	32776	
6649	0	32704	
6650	0	32520	
6651	0	32528	
6652	0	32724	
6653	0	32712	
6654	0	32616	
6655	0	32736	
6656	0	32884	
6657	0	32956	
6658	0	32856	
6659	0	32896	
6660	0	32804	
6661	0	32737	
6662	0	32836	
6663	0	33020	
6664	0	33176	
6665	0	33004	
6666	0	32860	
6667	0	33064	
6668	0	33178	
6669	0	32864	
6670	0	32712	
6671	0	32726	
6672	0	32649	
6673	0	32540	
6674	0	32604	
6675	0	32704	
6676	0	32865	
6677	0	32912	
6678	0	32888	
6679	0	32768	
6680	0	32612	
6681	0	32636	
6682	0	32584	
6683	0	32680	
6684	0	32696	
6685	0	32736	
6686	0	32644	
6687	0	32744	
6688	0	32696	
6689	0	32540	
6690	0	32400	
6691	0	32392	
6692	0	32786	
6693	0	33004	
6694	0	33076	
6695	0	33176	
6696	0	33196	
6697	0	33273	
6698	0	33117	
6699	0	32856	
6700	0	32692	
6701	0	32440	
6702	0	32480	
6703	0	32492	
6704	0	32540	
6705	0	32408	
6706	0	32552	
6707	0	32684	
6708	0	32740	
6709	0	32840	
6710	0	33020	
6711	0	33124	
6712	0	33096	
6713	0	33096	
6714	0	33102	
6715	0	33114	
6716	0	32960	
6717	0	32828	
6718	0	32701	
6719	0	32820	
6720	0	32549	
6721	0	32544	
6722	0	32556	
6723	0	32641	
6724	0	32596	
6725	0	32637	
6726	0	32640	
6727	0	32636	
6728	0	32684	
6729	0	32724	
6730	0	32880	
6731	0	32836	
6732	0	32945	
6733	0	32996	
6734	0	32892	
6735	0	32836	
6736	0	32753	
6737	0	32722	
6738	0	32628	
6739	0	32712	
6740	0	32718	
6741	0	32700	
6742	0	32810	
6743	0	32916	
6744	0	32848	
6745	0	32788	
6746	0	32688	
6747	0	32717	
6748	0	32404	
6749	0	32464	
6750	0	32637	
6751	0	32700	
6752	0	32900	
6753	0	33044	
6754	0	33144	
6755	0	33152	
6756	0	33057	
6757	0	32916	
6758	0	32832	
6759	0	32724	
6760	0	32724	
6761	0	32720	
6762	0	32784	
6763	0	32719	
6764	0	32628	
6765	0	32688	
6766	0	32668	
6767	0	32756	
6768	0	32684	
6769	0	32468	
6770	0	32144	
6771	0	32160	
6772	0	32312	
6773	0	32646	
6774	0	32884	
6775	0	33240	
6776	0	33484	
6777	0	33652	
6778	0	33496	
6779	0	33592	
6780	0	33336	
6781	0	32724	
6782	0	32444	
6783	0	32604	
6784	0	32480	
6785	0	32420	
6786	0	32536	
6787	0	32532	
6788	0	32680	
6789	0	32708	
6790	0	32612	
6791	0	32854	
6792	0	32944	
6793	0	32732	
6794	0	32781	
6795	0	32664	
6796	0	32644	
6797	0	32649	
6798	0	32688	
6799	0	32721	
6800	0	32712	
6801	0	32816	
6802	0	32888	
6803	0	32752	
6804	0	32692	
6805	0	32716	
6806	0	32684	
6807	0	32764	
6808	0	32804	
6809	0	32868	
6810	0	32856	
6811	0	32877	
6812	0	32912	
6813	0	32868	
6814	0	33013	
6815	0	33112	
6816	0	32996	
6817	0	32804	
6818	0	32720	
6819	0	32600	
6820	0	32568	
6821	0	32592	
6822	0	32592	
6823	0	32676	
6824	0	32812	
6825	0	32816	
6826	0	32840	
6827	0	32840	
6828	0	32768	
6829	0	32736	
6830	0	32688	
6831	0	32788	
6832	0	32752	
6833	0	32788	
6834	0	32877	
6835	0	32540	
6836	0	32580	
6837	0	32660	
6838	0	32730	
6839	0	32836	
6840	0	32864	
6841	0	33000	
6842	0	32936	
6843	0	32948	
6844	0	32861	
6845	0	32944	
6846	0	32788	
6847	0	32756	
6848	0	32820	
6849	0	32822	
6850	0	32680	
6851	0	32488	
6852	0	32552	
6853	0	32736	
6854	0	32920	
6855	0	33134	
6856	0	33120	
6857	0	33048	
6858	0	33012	
6859	0	32912	
6860	0	32844	
6861	0	32752	
6862	0	32656	
6863	0	32664	
6864	0	32576	
6865	0	32696	
6866	0	32704	
6867	0	32624	
6868	0	32596	
6869	0	32496	
6870	0	32084	
6871	0	32000	
6872	0	32212	
6873	0	32348	
6874	0	32592	
6875	0	32948	
6876	0	33184	
6877	0	33540	
6878	0	33572	
6879	0	33676	
6880	0	33728	
6881	0	33300	
6882	0	32812	
6883	0	32873	
6884	0	32892	
6885	0	32628	
6886	0	32356	
6887	0	32324	
6888	0	32360	
6889	0	32468	
6890	0	32460	
6891	0	32460	
6892	0	32592	
6893	0	32581	
6894	0	32648	
6895	0	32756	
6896	0	32812	
6897	0	32880	
6898	0	32768	
6899	0	32732	
6900	0	32736	
6901	0	32844	
6902	0	32776	
6903	0	32660	
6904	0	32732	
6905	0	32848	
6906	0	33004	
6907	0	33064	
6908	0	32952	
6909	0	32952	
6910	0	32924	
6911	0	32868	
6912	0	32761	
6913	0	32816	
6914	0	32808	
6915	0	32716	
6916	0	32788	
6917	0	32748	
6918	0	32676	
6919	0	32720	
6920	0	32780	
6921	0	32729	
6922	0	32628	
6923	0	32468	
6924	0	32396	
6925	0	32508	
6926	0	32644	
6927	0	32820	
6928	0	32924	
6929	0	32919	
6930	0	32984	
6931	0	32952	
6932	0	32876	
6933	0	32901	
6934	0	32976	
6935	0	33000	
6936	0	32940	
6937	0	32816	
6938	0	32900	
6939	0	32820	
6940	0	32661	
6941	0	32668	
6942	0	32628	
6943	0	32704	
6944	0	32636	
6945	0	32640	
6946	0	32668	
6947	0	32672	
6948	0	32728	
6949	0	32804	
6950	0	32701	
6951	0	32724	
6952	0	32636	
6953	0	32748	
6954	0	32754	
6955	0	32900	
6956	0	32852	
6957	0	32832	
6958	0	32848	
6959	0	32744	
6960	0	32768	
6961	0	32760	
6962	0	32776	
6963	0	32484	
6964	0	32472	
6965	0	32824	
6966	0	32800	
6967	0	32937	
6968	0	33004	
6969	0	33017	
6970	0	32916	
6971	0	32892	
6972	0	32836	
6973	0	32852	
6974	0	32720	
6975	0	32724	
6976	0	32656	
6977	0	32656	
6978	0	32720	
6979	0	32608	
6980	0	32404	
6981	0	32384	
6982	0	32344	
6983	0	32464	
6984	0	32702	
6985	0	32824	
6986	0	33078	
6987	0	33156	
6988	0	33250	
6989	0	33316	
6990	0	33200	
6991	0	33080	
6992	0	32952	
6993	0	32736	
6994	0	32612	
6995	0	32609	
6996	0	32520	
6997	0	32586	
6998	0	32557	
6999	0	32516	
7000	0	32672	
7001	0	32880	
7002	0	32932	
7003	0	32996	
7004	0	33052	
7005	0	32966	
7006	0	32768	
7007	0	32732	
7008	0	32704	
7009	0	32633	
7010	0	32716	
7011	0	32776	
7012	0	32764	
7013	0	32697	
7014	0	32764	
7015	0	32980	
7016	0	33156	
7017	0	33388	
7018	0	33220	
7019	0	33052	
7020	0	32740	
7021	0	32724	
7022	0	32600	
7023	0	32552	
7024	0	32628	
7025	0	32580	
7026	0	32656	
7027	0	32576	
7028	0	32636	
7029	0	32648	
7030	0	32720	
7031	0	32700	
7032	0	32712	
7033	0	32705	
7034	0	32804	
7035	0	32844	
7036	0	32812	
7037	0	32748	
7038	0	32820	
7039	0	32852	
7040	0	32736	
7041	0	32676	
7042	0	32782	
7043	0	32768	
7044	0	32720	
7045	0	32760	
7046	0	32732	
7047	0	32744	
7048	0	32776	
7049	0	32748	
7050	0	32804	
7051	0	32776	
7052	0	32888	
7053	0	33040	
7054	0	32958	
7055	0	32832	
7056	0	32832	
7057	0	32772	
7058	0	32768	
7059	0	32760	
7060	0	32709	
7061	0	32758	
7062	0	32756	
7063	0	32804	
7064	0	32784	
7065	0	32792	
7066	0	32768	
7067	0	32808	
7068	0	32788	
7069	0	32552	
7070	0	32496	
7071	0	32540	
7072	0	32696	
7073	0	32844	
7074	0	32924	
7075	0	32984	
7076	0	33076	
7077	0	33020	
7078	0	32740	
7079	0	32560	
7080	0	32512	
7081	0	32460	
7082	0	32276	
7083	0	32268	
7084	0	32580	
7085	0	32844	
7086	0	32952	
7087	0	33016	
7088	0	33152	
7089	0	33244	
7090	0	33254	
7091	0	33196	
7092	0	33316	
7093	0	32964	
7094	0	32604	
7095	0	32604	
7096	0	32588	
7097	0	32749	
7098	0	32852	
7099	0	33077	
7100	0	33132	
7101	0	33092	
7102	0	32820	
7103	0	32576	
7104	0	32549	
7105	0	32528	
7106	0	32664	
7107	0	32756	
7108	0	32612	
7109	0	32592	
7110	0	32524	
7111	0	32516	
7112	0	32616	
7113	0	32640	
7114	0	32605	
7115	0	32608	
7116	0	32716	
7117	0	32840	
7118	0	32888	
7119	0	32900	
7120	0	32848	
7121	0	32804	
7122	0	32740	
7123	0	32868	
7124	0	32780	
7125	0	32764	
7126	0	32760	
7127	0	32712	
7128	0	32796	
7129	0	32818	
7130	0	32860	
7131	0	32812	
7132	0	32772	
7133	0	32813	
7134	0	32828	
7135	0	32784	
7136	0	32808	
7137	0	32764	
7138	0	32748	
7139	0	32756	
7140	0	32764	
7141	0	32748	
7142	0	32768	
7143	0	32820	
7144	0	32812	
7145	0	32788	
7146	0	32720	
7147	0	32804	
7148	0	32820	
7149	0	32808	
7150	0	32808	
7151	0	32728	
7152	0	32768	
7153	0	32808	
7154	0	32764	
7155	0	32828	
7156	0	32756	
7157	0	32712	
7158	0	32748	
7159	0	32804	
7160	0	32794	
7161	0	32740	
7162	0	32809	
7163	0	32804	
7164	0	32812	
7165	0	32740	
7166	0	32780	
7167	0	32808	
7168	0	32876	
7169	0	33036	
7170	0	32988	
7171	0	32868	
7172	0	32865	
7173	0	32800	
7174	0	32512	
7175	0	32416	
7176	0	32544	
7177	0	32656	
7178	0	32624	
7179	0	32592	
7180	0	32645	
7181	0	32777	
7182	0	32792	
7183	0	32608	
7184	0	32668	
7185	0	32697	
7186	0	32900	
7187	0	33032	
7188	0	33217	
7189	0	33288	
7190	0	33200	
7191	0	33120	
7192	0	33132	
7193	0	33156	
7194	0	32852	
7195	0	32812	
7196	0	32864	
7197	0	32740	
7198	0	32668	
7199	0	32552	
7200	0	32520	
7201	0	32740	
7202	0	32716	
7203	0	32724	
7204	0	32757	
7205	0	32652	
7206	0	32644	
7207	0	32733	
7208	0	32766	
7209	0	32716	
7210	0	32652	
7211	0	32608	
7212	0	32612	
7213	0	32757	
7214	0	32832	
7215	0	32904	
7216	0	32748	
7217	0	32752	
7218	0	32689	
7219	0	32764	
7220	0	32700	
7221	0	32756	
7222	0	32846	
7223	0	32760	
7224	0	32804	
7225	0	32801	
7226	0	32829	
7227	0	32810	
7228	0	32804	
7229	0	32712	
7230	0	32768	
7231	0	32684	
7232	0	32704	
7233	0	32696	
7234	0	32832	
7235	0	32900	
7236	0	32832	
7237	0	32788	
7238	0	32772	
7239	0	32776	
7240	0	32756	
7241	0	32792	
7242	0	32828	
7243	0	32800	
7244	0	32908	
7245	0	32774	
7246	0	32784	
7247	0	32676	
7248	0	32760	
7249	0	32728	
7250	0	32716	
7251	0	32732	
7252	0	32728	
7253	0	32780	
7254	0	32788	
7255	0	32832	
7256	0	32880	
7257	0	33004	
7258	0	32888	
7259	0	32712	
7260	0	32684	
7261	0	32680	
7262	0	32804	
7263	0	32808	
7264	0	32816	
7265	0	32801	
7266	0	32812	
7267	0	32796	
7268	0	32709	
7269	0	32648	
7270	0	32652	
7271	0	32770	
7272	0	32888	
7273	0	32692	
7274	0	32472	
7275	0	32460	
7276	0	32584	
7277	0	32624	
7278	0	32828	
7279	0	32903	
7280	0	32964	
7281	0	32802	
7282	0	32468	
7283	0	32521	
7284	0	32592	
7285	0	32692	
7286	0	32848	
7287	0	33118	
7288	0	33312	
7289	0	33452	
7290	0	33472	
7291	0	33428	
7292	0	33236	
7293	0	32740	
7294	0	32584	
7295	0	32596	
7296	0	32544	
7297	0	32586	
7298	0	32608	
7299	0	32508	
7300	0	32564	
7301	0	32600	
7302	0	32604	
7303	0	32752	
7304	0	32824	
7305	0	32856	
7306	0	32900	
7307	0	32880	
7308	0	32660	
7309	0	32316	
7310	0	32416	
7311	0	32644	
7312	0	32716	
7313	0	32804	
7314	0	32948	
7315	0	33002	
7316	0	33093	
7317	0	32980	
7318	0	33018	
7319	0	32884	
7320	0	32796	
7321	0	32846	
7322	0	32780	
7323	0	32808	
7324	0	32696	
7325	0	32720	
7326	0	32744	
7327	0	32794	
7328	0	32761	
7329	0	32653	
7330	0	32584	
7331	0	32596	
7332	0	32848	
7333	0	32704	
7334	0	32820	
7335	0	32769	
7336	0	32808	
7337	0	32724	
7338	0	32868	
7339	0	32844	
7340	0	32872	
7341	0	32788	
7342	0	32916	
7343	0	32864	
7344	0	32808	
7345	0	32684	
7346	0	32730	
7347	0	32637	
7348	0	32664	
7349	0	32868	
7350	0	32816	
7351	0	32804	
7352	0	32792	
7353	0	32693	
7354	0	32684	
7355	0	32669	
7356	0	32744	
7357	0	32736	
7358	0	32576	
7359	0	32476	
7360	0	32668	
7361	0	32720	
7362	0	32900	
7363	0	33040	
7364	0	33112	
7365	0	33080	
7366	0	32980	
7367	0	32932	
7368	0	32996	
7369	0	32732	
7370	0	32692	
7371	0	32620	
7372	0	32520	
7373	0	32644	
7374	0	32660	
7375	0	32700	
7376	0	32520	
7377	0	32440	
7378	0	32480	
7379	0	32561	
7380	0	32677	
7381	0	32716	
7382	0	32888	
7383	0	33121	
7384	0	33174	
7385	0	33304	
7386	0	33348	
7387	0	33164	
7388	0	32884	
7389	0	32752	
7390	0	32629	
7391	0	32680	
7392	0	32532	
7393	0	32472	
7394	0	32520	
7395	0	32504	
7396	0	32528	
7397	0	32380	
7398	0	32332	
7399	0	32512	
7400	0	32676	
7401	0	32700	
7402	0	33092	
7403	0	33308	
7404	0	33360	
7405	0	33232	
7406	0	32992	
7407	0	32900	
7408	0	32884	
7409	0	32828	
7410	0	32884	
7411	0	32844	
7412	0	32852	
7413	0	32808	
7414	0	32741	
7415	0	32784	
7416	0	32804	
7417	0	32704	
7418	0	32493	
7419	0	32516	
7420	0	32513	
7421	0	32520	
7422	0	32624	
7423	0	32700	
7424	0	32720	
7425	0	32676	
7426	0	32698	
7427	0	32736	
7428	0	32820	
7429	0	32908	
7430	0	32740	
7431	0	32824	
7432	0	32888	
7433	0	32896	
7434	0	32814	
7435	0	32936	
7436	0	32896	
7437	0	32853	
7438	0	32818	
7439	0	33000	
7440	0	32928	
7441	0	32884	
7442	0	32932	
7443	0	32881	
7444	0	32720	
7445	0	32764	
7446	0	32708	
7447	0	32656	
7448	0	32532	
7449	0	32448	
7450	0	32400	
7451	0	32444	
7452	0	32708	
7453	0	32872	
7454	0	32992	
7455	0	32944	
7456	0	32876	
7457	0	32868	
7458	0	32980	
7459	0	32988	
7460	0	32864	
7461	0	32936	
7462	0	33024	
7463	0	32904	
7464	0	32840	
7465	0	32788	
7466	0	32584	
7467	0	32544	
7468	0	32648	
7469	0	32644	
7470	0	32736	
7471	0	32640	
7472	0	32673	
7473	0	32680	
7474	0	32728	
7475	0	32720	
7476	0	32748	
7477	0	32724	
7478	0	32756	
7479	0	32712	
7480	0	32540	
7481	0	32424	
7482	0	32376	
7483	0	32578	
7484	0	32772	
7485	0	32669	
7486	0	32776	
7487	0	33000	
7488	0	33238	
7489	0	33316	
7490	0	33408	
7491	0	33296	
7492	0	32960	
7493	0	32824	
7494	0	32756	
7495	0	32624	
7496	0	32588	
7497	0	32436	
7498	0	32380	
7499	0	32448	
7500	0	32476	
7501	0	32552	
7502	0	32748	
7503	0	32860	
7504	0	32996	
7505	0	32976	
7506	0	32984	
7507	0	32864	
7508	0	32824	
7509	0	32812	
7510	0	32972	
7511	0	32848	
7512	0	32928	
7513	0	32932	
7514	0	32916	
7515	0	32972	
7516	0	32896	
7517	0	32764	
7518	0	32504	
7519	0	32480	
7520	0	32548	
7521	0	32544	
7522	0	32584	
7523	0	32816	
7524	0	32820	
7525	0	32768	
7526	0	32822	
7527	0	32856	
7528	0	32897	
7529	0	32798	
7530	0	32876	
7531	0	32996	
7532	0	32908	
7533	0	32668	
7534	0	32600	
7535	0	32570	
7536	0	32584	
7537	0	32848	
7538	0	32992	
7539	0	33029	
7540	0	33016	
7541	0	32932	
7542	0	32861	
7543	0	32840	
7544	0	32768	
7545	0	32732	
7546	0	32760	
7547	0	32640	
7548	0	32648	
7549	0	32604	
7550	0	32576	
7551	0	32696	
7552	0	32736	
7553	0	32737	
7554	0	32620	
7555	0	32844	
7556	0	33008	
7557	0	32912	
7558	0	32860	
7559	0	32812	
7560	0	32716	
7561	0	32680	
7562	0	32832	
7563	0	32870	
7564	0	32809	
7565	0	32864	
7566	0	32824	
7567	0	32796	
7568	0	32792	
7569	0	32768	
7570	0	32684	
7571	0	32760	
7572	0	32664	
7573	0	32604	
7574	0	32576	
7575	0	32684	
7576	0	32736	
7577	0	32904	
7578	0	32964	
7579	0	32912	
7580	0	33008	
7581	0	32920	
7582	0	32808	
7583	0	32604	
7584	0	32487	
7585	0	32540	
7586	0	32568	
7587	0	32740	
7588	0	32780	
7589	0	32828	
7590	0	32896	
7591	0	33025	
7592	0	33100	
7593	0	33028	
7594	0	32800	
7595	0	32704	
7596	0	32776	
7597	0	32844	
7598	0	32772	
7599	0	32708	
7600	0	32780	
7601	0	32704	
7602	0	32708	
7603	0	32744	
7604	0	32580	
7605	0	32568	
7606	0	32632	
7607	0	32686	
7608	0	32768	
7609	0	32776	
7610	0	32764	
7611	0	32852	
7612	0	32884	
7613	0	32860	
7614	0	32784	
7615	0	32748	
7616	0	32692	
7617	0	32752	
7618	0	32980	
7619	0	32952	
7620	0	32840	
7621	0	32764	
7622	0	32732	
7623	0	32436	
7624	0	32129	
7625	0	32364	
7626	0	32756	
7627	0	32868	
7628	0	33080	
7629	0	33324	
7630	0	33476	
7631	0	33512	
7632	0	33413	
7633	0	33308	
7634	0	33060	
7635	0	32760	
7636	0	32698	
7637	0	32748	
7638	0	32532	
7639	0	32456	
7640	0	32356	
7641	0	32412	
7642	0	32560	
7643	0	32577	
7644	0	32580	
7645	0	32600	
7646	0	32520	
7647	0	32688	
7648	0	32804	
7649	0	32784	
7650	0	32766	
7651	0	32952	
7652	0	32920	
7653	0	32904	
7654	0	32856	
7655	0	32804	
7656	0	32792	
7657	0	32716	
7658	0	32764	
7659	0	32788	
7660	0	32790	
7661	0	32748	
7662	0	32734	
7663	0	32660	
7664	0	32684	
7665	0	32732	
7666	0	32748	
7667	0	32712	
7668	0	32582	
7669	0	32562	
7670	0	32604	
7671	0	32596	
7672	0	32680	
7673	0	32816	
7674	0	32996	
7675	0	33100	
7676	0	33188	
7677	0	33268	
7678	0	33248	
7679	0	32912	
7680	0	32652	
7681	0	32628	
7682	0	32709	
7683	0	32680	
7684	0	32676	
7685	0	32644	
7686	0	32644	
7687	0	32636	
7688	0	32788	
7689	0	32820	
7690	0	32616	
7691	0	32504	
7692	0	32584	
7693	0	32576	
7694	0	32604	
7695	0	32708	
7696	0	32788	
7697	0	32900	
7698	0	32940	
7699	0	32948	
7700	0	33108	
7701	0	33112	
7702	0	32871	
7703	0	32816	
7704	0	32772	
7705	0	32844	
7706	0	32878	
7707	0	32932	
7708	0	32916	
7709	0	32845	
7710	0	32756	
7711	0	32764	
7712	0	32821	
7713	0	32892	
7714	0	32876	
7715	0	32760	
7716	0	32784	
7717	0	32760	
7718	0	32424	
7719	0	32228	
7720	0	32328	
7721	0	32416	
7722	0	32556	
7723	0	32804	
7724	0	32890	
7725	0	32836	
7726	0	32948	
7727	0	33056	
7728	0	32864	
7729	0	32801	
7730	0	32740	
7731	0	32964	
7732	0	33180	
7733	0	33113	
7734	0	33072	
7735	0	33000	
7736	0	32964	
7737	0	32832	
7738	0	32996	
7739	0	32860	
7740	0	32706	
7741	0	32616	
7742	0	32569	
7743	0	32528	
7744	0	32576	
7745	0	32628	
7746	0	32668	
7747	0	32664	
7748	0	32717	
7749	0	32720	
7750	0	32744	
7751	0	32792	
7752	0	32752	
7753	0	32676	
7754	0	32688	
7755	0	32688	
7756	0	32744	
7757	0	32768	
7758	0	32788	
7759	0	32774	
7760	0	32774	
7761	0	32828	
7762	0	32728	
7763	0	32668	
7764	0	32730	
7765	0	32740	
7766	0	32693	
7767	0	32776	
7768	0	32776	
7769	0	32800	
7770	0	32775	
7771	0	32840	
7772	0	32864	
7773	0	32868	
7774	0	32812	
7775	0	32868	
7776	0	32760	
7777	0	32784	
7778	0	32768	
7779	0	32676	
7780	0	32660	
7781	0	32608	
7782	0	32772	
7783	0	32896	
7784	0	32829	
7785	0	32748	
7786	0	32744	
7787	0	32816	
7788	0	32832	
7789	0	32830	
7790	0	32796	
7791	0	32700	
7792	0	32845	
7793	0	32976	
7794	0	33136	
7795	0	33096	
7796	0	32808	
7797	0	32644	
7798	0	32684	
7799	0	32616	
7800	0	32692	
7801	0	32772	
7802	0	32728	
7803	0	32693	
7804	0	32652	
7805	0	32828	
7806	0	32902	
7807	0	32929	
7808	0	32912	
7809	0	32952	
7810	0	32820	
7811	0	32688	
7812	0	32584	
7813	0	32590	
7814	0	32640	
7815	0	32704	
7816	0	32692	
7817	0	32740	
7818	0	32640	
7819	0	32704	
7820	0	32740	
7821	0	32716	
7822	0	32800	
7823	0	32792	
7824	0	32852	
7825	0	32832	
7826	0	32862	
7827	0	32840	
7828	0	32888	
7829	0	32840	
7830	0	32844	
7831	0	32784	
7832	0	32868	
7833	0	32909	
7834	0	32872	
7835	0	32781	
7836	0	32708	
7837	0	32568	
7838	0	32517	
7839	0	32624	
7840	0	32660	
7841	0	32740	
7842	0	32828	
7843	0	32572	
7844	0	32604	
7845	0	32712	
7846	0	32880	
7847	0	32984	
7848	0	33140	
7849	0	33081	
7850	0	32952	
7851	0	32864	
7852	0	32648	
7853	0	32588	
7854	0	32564	
7855	0	32804	
7856	0	33100	
7857	0	33232	
7858	0	33388	
7859	0	33452	
7860	0	33104	
7861	0	32888	
7862	0	32712	
7863	0	32516	
7864	0	32500	
7865	0	32580	
7866	0	32636	
7867	0	32529	
7868	0	32630	
7869	0	32640	
7870	0	32612	
7871	0	32649	
7872	0	32692	
7873	0	32748	
7874	0	32756	
7875	0	32768	
7876	0	32760	
7877	0	32768	
7878	0	32804	
7879	0	32748	
7880	0	32760	
7881	0	32820	
7882	0	32749	
7883	0	32772	
7884	0	32774	
7885	0	32740	
7886	0	32784	
7887	0	32816	
7888	0	32816	
7889	0	32852	
7890	0	32704	
7891	0	32352	
7892	0	32300	
7893	0	32496	
7894	0	32584	
7895	0	32808	
7896	0	33105	
7897	0	33268	
7898	0	33356	
7899	0	33373	
7900	0	33308	
7901	0	33158	
7902	0	32688	
7903	0	32572	
7904	0	32692	
7905	0	32636	
7906	0	32484	
7907	0	32536	
7908	0	32592	
7909	0	32540	
7910	0	32585	
7911	0	32608	
7912	0	32630	
7913	0	32741	
7914	0	32612	
7915	0	32622	
7916	0	32704	
7917	0	32748	
7918	0	32852	
7919	0	32974	
7920	0	33020	
7921	0	33164	
7922	0	33088	
7923	0	32964	
7924	0	32864	
7925	0	32788	
7926	0	32700	
7927	0	32545	
7928	0	32720	
7929	0	32720	
7930	0	32692	
7931	0	32736	
7932	0	32700	
7933	0	32612	
7934	0	32824	
7935	0	32956	
7936	0	32900	
7937	0	32860	
7938	0	32680	
7939	0	32665	
7940	0	32680	
7941	0	32668	
7942	0	32732	
7943	0	32604	
7944	0	32484	
7945	0	32452	
7946	0	32384	
7947	0	32516	
7948	0	32648	
7949	0	32832	
7950	0	33096	
7951	0	33144	
7952	0	33269	
7953	0	33128	
7954	0	33036	
7955	0	32888	
7956	0	32940	
7957	0	32876	
7958	0	32884	
7959	0	33004	
7960	0	33052	
7961	0	33044	
7962	0	33004	
7963	0	32802	
7964	0	32520	
7965	0	32520	
7966	0	32516	
7967	0	32544	
7968	0	32552	
7969	0	32584	
7970	0	32520	
7971	0	32528	
7972	0	32664	
7973	0	32888	
7974	0	32894	
7975	0	32904	
7976	0	32868	
7977	0	32756	
7978	0	32724	
7979	0	32668	
7980	0	32774	
7981	0	32840	
7982	0	32784	
7983	0	32834	
7984	0	32848	
7985	0	32888	
7986	0	32748	
7987	0	32788	
7988	0	32736	
7989	0	32712	
7990	0	32744	
7991	0	32708	
7992	0	32716	
7993	0	32752	
7994	0	32800	
7995	0	32712	
7996	0	32652	
7997	0	32780	
7998	0	32772	
7999	0	32780	
8000	0	32856	
8001	0	32812	
8002	0	32852	
8003	0	32712	
8004	0	32708	
8005	0	32736	
8006	0	32694	
8007	0	32660	
8008	0	32712	
8009	0	32702	
8010	0	32670	
8011	0	32620	
8012	0	32628	
8013	0	32862	
8014	0	32992	
8015	0	33208	
8016	0	33260	
8017	0	33136	
8018	0	32964	
8019	0	33108	
8020	0	32986	
8021	0	32900	
8022	0	32720	
8023	0	32556	
8024	0	32492	
8025	0	32468	
8026	0	32092	
8027	0	32077	
8028	0	32140	
8029	0	32428	
8030	0	32756	
8031	0	33000	
8032	0	33184	
8033	0	33296	
8034	0	33144	
8035	0	33084	
8036	0	33284	
8037	0	33096	
8038	0	33072	
8039	0	32924	
8040	0	32992	
8041	0	32964	
8042	0	32988	
8043	0	33108	
8044	0	32616	
8045	0	32429	
8046	0	32428	
8047	0	32492	
8048	0	32456	
8049	0	32676	
8050	0	32776	
8051	0	32868	
8052	0	32900	
8053	0	32876	
8054	0	32912	
8055	0	32788	
8056	0	32628	
8057	0	32620	
8058	0	32684	
8059	0	32686	
8060	0	32680	
8061	0	32725	
8062	0	32692	
8063	0	32732	
8064	0	32764	
8065	0	32752	
8066	0	32704	
8067	0	32700	
8068	0	32686	
8069	0	32772	
8070	0	32812	
8071	0	32884	
8072	0	32825	
8073	0	32824	
8074	0	32848	
8075	0	32904	
8076	0	32753	
8077	0	32796	
8078	0	32812	
8079	0	32780	
8080	0	32804	
8081	0	32745	
8082	0	32772	
8083	0	32772	
8084	0	32828	
8085	0	32821	
8086	0	32804	
8087	0	32816	
8088	0	32797	
8089	0	32720	
8090	0	32592	
8091	0	32656	
8092	0	32720	
8093	0	32740	
8094	0	32652	
8095	0	32764	
8096	0	32876	
8097	0	32908	
8098	0	32925	
8099	0	32968	
8100	0	32892	
8101	0	32805	
8102	0	32772	
8103	0	32768	
8104	0	32724	
8105	0	32632	
8106	0	32608	
8107	0	32624	
8108	0	32732	
8109	0	32712	
8110	0	32820	
8111	0	32864	
8112	0	32844	
8113	0	32740	
8114	0	32648	
8115	0	32676	
8116	0	32677	
8117	0	32720	
8118	0	32772	
8119	0	32868	
8120	0	32940	
8121	0	33072	
8122	0	33081	
8123	0	32912	
8124	0	32608	
8125	0	32300	
8126	0	32414	
8127	0	32656	
8128	0	32804	
8129	0	32972	
8130	0	33062	
8131	0	33092	
8132	0	33081	
8133	0	32956	
8134	0	32708	
8135	0	32608	
8136	0	32644	
8137	0	32288	
8138	0	32197	
8139	0	32320	
8140	0	32468	
8141	0	32772	
8142	0	32937	
8143	0	33008	
8144	0	33046	
8145	0	33044	
8146	0	32884	
8147	0	32864	
8148	0	32828	
8149	0	32828	
8150	0	32728	
8151	0	32632	
8152	0	32684	
8153	0	32725	
8154	0	32656	
8155	0	32676	
8156	0	32704	
8157	0	32692	
8158	0	32698	
8159	0	32628	
8160	0	32700	
8161	0	32824	
8162	0	32788	
8163	0	32884	
8164	0	32952	
8165	0	32896	
8166	0	32916	
8167	0	33006	
8168	0	32928	
8169	0	33078	
8170	0	32948	
8171	0	32756	
8172	0	32661	
8173	0	32800	
8174	0	32884	
8175	0	32840	
8176	0	32760	
8177	0	32844	
8178	0	32897	
8179	0	32804	
8180	0	32725	
8181	0	32636	
8182	0	32796	
8183	0	32948	
8184	0	32836	
8185	0	32848	
8186	0	32848	
8187	0	32868	
8188	0	32864	
8189	0	32744	
8190	0	32804	
8191	0	32732	
8192	0	32686	
8193	0	32720	
8194	0	32824	
8195	0	32760	
8196	0	32798	
8197	0	32801	
8198	0	32753	
8199	0	32812	
8200	0	32832	
8201	0	32836	
8202	0	32832	
8203	0	32856	
8204	0	32824	
8205	0	32728	
8206	0	32716	
8207	0	32704	
8208	0	32712	
8209	0	32745	
8210	0	32820	
8211	0	32708	
8212	0	32536	
8213	0	32620	
8214	0	32584	
8215	0	32639	
8216	0	32692	
8217	0	32648	
8218	0	32745	
8219	0	32858	
8220	0	32976	
8221	0	33262	
8222	0	33334	
8223	0	33200	
8224	0	32948	
8225	0	32996	
8226	0	32908	
8227	0	32860	
8228	0	32720	
8229	0	32612	
8230	0	32624	
8231	0	32652	
8232	0	32640	
8233	0	32684	
8234	0	32600	
8235	0	32580	
8236	0	32656	
8237	0	32772	
8238	0	32932	
8239	0	32968	
8240	0	32940	
8241	0	32903	
8242	0	32948	
8243	0	32948	
8244	0	32852	
8245	0	32708	
8246	0	32840	
8247	0	32814	
8248	0	32784	
8249	0	32708	
8250	0	32728	
8251	0	32652	
8252	0	32660	
8253	0	32804	
8254	0	32936	
8255	0	32916	
8256	0	32836	
8257	0	32936	
8258	0	32896	
8259	0	32876	
8260	0	32820	
8261	0	32748	
8262	0	32576	
8263	0	32540	
8264	0	32548	
8265	0	32712	
8266	0	32716	
8267	0	32697	
8268	0	32860	
8269	0	32822	
8270	0	32721	
8271	0	32692	
8272	0	32792	
8273	0	32641	
8274	0	32676	
8275	0	32404	
8276	0	32526	
8277	0	32728	
8278	0	32884	
8279	0	33084	
8280	0	33257	
8281	0	33288	
8282	0	33354	
8283	0	33480	
8284	0	33160	
8285	0	32820	
8286	0	32660	
8287	0	32620	
8288	0	32496	
8289	0	32528	
8290	0	32506	
8291	0	32462	
8292	0	32589	
8293	0	32592	
8294	0	32596	
8295	0	32576	
8296	0	32565	
8297	0	32600	
8298	0	32564	
8299	0	32612	
8300	0	32660	
8301	0	32748	
8302	0	32804	
8303	0	32846	
8304	0	32748	
8305	0	32972	
8306	0	32944	
8307	0	32884	
8308	0	32932	
8309	0	32716	
8310	0	32452	
8311	0	32344	
8312	0	32281	
8313	0	32392	
8314	0	32685	
8315	0	32932	
8316	0	33076	
8317	0	33124	
8318	0	33188	
8319	0	33192	
8320	0	33128	
8321	0	32936	
8322	0	32944	
8323	0	33020	
8324	0	32878	
8325	0	32832	
8326	0	32896	
8327	0	32829	
8328	0	32744	
8329	0	32632	
8330	0	32644	
8331	0	32480	
8332	0	32584	
8333	0	32700	
8334	0	32764	
8335	0	32708	
8336	0	32748	
8337	0	32692	
8338	0	32672	
8339	0	32872	
8340	0	32832	
8341	0	32756	
8342	0	32631	
8343	0	32488	
8344	0	32588	
8345	0	32740	
8346	0	32776	
8347	0	32892	
8348	0	32976	
8349	0	32988	
8350	0	32972	
8351	0	32862	
8352	0	32856	
8353	0	32776	
8354	0	32680	
8355	0	32728	
8356	0	32472	
8357	0	32424	
8358	0	32514	
8359	0	32588	
8360	0	32812	
8361	0	32917	
8362	0	32957	
8363	0	32980	
8364	0	32888	
8365	0	32685	
8366	0	32520	
8367	0	32480	
8368	0	32660	
8369	0	32788	
8370	0	32844	
8371	0	32972	
8372	0	32964	
8373	0	33020	
8374	0	33065	
8375	0	33060	
8376	0	32990	
8377	0	32909	
8378	0	32868	
8379	0	32764	
8380	0	32720	
8381	0	32720	
8382	0	32660	
8383	0	32688	
8384	0	32720	
8385	0	32744	
8386	0	32820	
8387	0	32742	
8388	0	32749	
8389	0	32748	
8390	0	32748	
8391	0	32816	
8392	0	32816	
8393	0	32804	
8394	0	32872	
8395	0	32814	
8396	0	32828	
8397	0	32672	
8398	0	32456	
8399	0	32576	
8400	0	32716	
8401	0	32816	
8402	0	32908	
8403	0	33056	
8404	0	33175	
8405	0	33040	
8406	0	32888	
8407	0	32792	
8408	0	32516	
8409	0	32365	
8410	0	32464	
8411	0	32568	
8412	0	32672	
8413	0	32780	
8414	0	32917	
8415	0	33040	
8416	0	33005	
8417	0	33068	
8418	0	33149	
8419	0	32832	
8420	0	32724	
8421	0	32844	
8422	0	32896	
8423	0	32864	
8424	0	32620	
8425	0	32688	
8426	0	32832	
8427	0	32704	
8428	0	32616	
8429	0	32636	
8430	0	32592	
8431	0	32580	
8432	0	32670	
8433	0	32652	
8434	0	32772	
8435	0	32720	
8436	0	32857	
8437	0	32880	
8438	0	32776	
8439	0	32696	
8440	0	32632	
8441	0	32700	
8442	0	32760	
8443	0	32864	
8444	0	32852	
8445	0	32661	
8446	0	32556	
8447	0	32513	
8448	0	32748	
8449	0	32896	
8450	0	32928	
8451	0	32952	
8452	0	32992	
8453	0	32828	
8454	0	32780	
8455	0	32797	
8456	0	32952	
8457	0	32796	
8458	0	32790	
8459	0	32880	
8460	0	33032	
8461	0	32927	
8462	0	32792	
8463	0	32796	
8464	0	32760	
8465	0	32652	
8466	0	32772	
8467	0	32804	
8468	0	32756	
8469	0	32576	
8470	0	32532	
8471	0	32676	
8472	0	32685	
8473	0	32788	
8474	0	32920	
8475	0	32972	
8476	0	32960	
8477	0	32972	
8478	0	32925	
8479	0	32868	
8480	0	32804	
8481	0	32676	
8482	0	32588	
8483	0	32732	
8484	0	32724	
8485	0	32640	
8486	0	32561	
8487	0	32612	
8488	0	32770	
8489	0	32766	
8490	0	32824	
8491	0	32844	
8492	0	32960	
8493	0	32861	
8494	0	32724	
8495	0	32696	
8496	0	32572	
8497	0	32381	
8498	0	32432	
8499	0	32540	
8500	0	32604	
8501	0	32844	
8502	0	33056	
8503	0	33044	
8504	0	33012	
8505	0	32916	
8506	0	32964	
8507	0	33016	
8508	0	32796	
8509	0	32750	
8510	0	32920	
8511	0	33020	
8512	0	32708	
8513	0	32612	
8514	0	32709	
8515	0	32712	
8516	0	32632	
8517	0	32736	
8518	0	32748	
8519	0	32740	
8520	0	32772	
8521	0	32720	
8522	0	32984	
8523	0	33021	
8524	0	32944	
8525	0	32816	
8526	0	32684	
8527	0	32784	
8528	0	32852	
8529	0	32700	
8530	0	32730	
8531	0	32800	
8532	0	32910	
8533	0	33024	
8534	0	32864	
8535	0	32892	
8536	0	32949	
8537	0	32900	
8538	0	32868	
8539	0	32596	
8540	0	32410	
8541	0	32496	
8542	0	32524	
8543	0	32532	
8544	0	32588	
8545	0	32676	
8546	0	32797	
8547	0	32936	
8548	0	33020	
8549	0	33009	
8550	0	32868	
8551	0	32821	
8552	0	32972	
8553	0	33024	
8554	0	32868	
8555	0	32777	
8556	0	32668	
8557	0	32660	
8558	0	32576	
8559	0	32708	
8560	0	32724	
8561	0	32776	
8562	0	32740	
8563	0	32836	
8564	0	32788	
8565	0	32828	
8566	0	32768	
8567	0	32732	
8568	0	32768	
8569	0	32716	
8570	0	32744	
8571	0	32884	
8572	0	32844	
8573	0	32760	
8574	0	32800	
8575	0	32753	
8576	0	32752	
8577	0	32705	
8578	0	32788	
8579	0	32769	
8580	0	32804	
8581	0	32884	
8582	0	32900	
8583	0	32656	
8584	0	32476	
8585	0	32420	
8586	0	32500	
8587	0	32701	
8588	0	32905	
8589	0	32972	
8590	0	32969	
8591	0	32704	
8592	0	32868	
8593	0	32940	
8594	0	32997	
8595	0	32932	
8596	0	33088	
8597	0	33168	
8598	0	33220	
8599	0	33212	
8600	0	33045	
8601	0	32844	
8602	0	32528	
8603	0	32596	
8604	0	32552	
8605	0	32408	
8606	0	32228	
8607	0	32208	
8608	0	32360	
8609	0	32552	
8610	0	32814	
8611	0	32864	
8612	0	32984	
