# OpenSignals Text File Format. Version 1
# {"00:07:80:4D:2E:9E": {"sensor": ["CUSTOM/0.5/1.0/V"], "device name": "00:07:80:4D:2E:9E", "column": ["nSeq", "DI", "CH1"], "sync interval": 2, "time": "11:53:3.50", "comments": "", "device connection": "BTH00:07:80:4D:2E:9E", "channels": [1], "keywords": "", "mode": 0, "digital IO": [0, 1], "firmware version": 774, "device": "biosignalsplux", "position": 0, "sampling rate": 1000, "label": ["CH1"], "resolution": [16], "date": "2020-7-11", "special": [{}]}}
# EndOfHeader
0	0	32780	
1	0	32760	
2	0	32740	
3	0	32813	
4	0	32804	
5	0	32796	
6	0	32774	
7	0	32752	
8	0	32776	
9	0	32756	
10	0	32708	
11	0	32860	
12	0	32784	
13	0	32834	
14	0	32821	
15	0	32758	
16	0	32756	
17	0	32704	
18	0	32688	
19	0	32760	
20	0	32780	
21	0	32768	
22	0	32780	
23	0	32828	
24	0	32812	
25	0	32784	
26	0	32844	
27	0	32743	
28	0	32760	
29	0	32784	
30	0	32820	
31	0	32828	
32	0	32812	
33	0	32856	
34	0	32812	
35	0	32900	
36	0	32752	
37	0	32766	
38	0	32724	
39	0	32702	
40	0	32804	
41	0	32704	
42	0	32728	
43	0	32736	
44	0	32668	
45	0	32725	
46	0	32776	
47	0	32804	
48	0	32808	
49	0	32868	
50	0	32844	
51	0	32826	
52	0	32848	
53	0	32869	
54	0	32813	
55	0	32824	
56	0	32852	
57	0	32776	
58	0	32760	
59	0	32636	
60	0	32742	
61	0	32760	
62	0	32744	
63	0	32768	
64	0	32772	
65	0	32782	
66	0	32744	
67	0	32812	
68	0	32792	
69	0	32808	
70	0	32777	
71	0	32764	
72	0	32884	
73	0	32836	
74	0	32784	
75	0	32788	
76	0	32816	
77	0	32732	
78	0	32704	
79	0	32740	
80	0	32760	
81	0	32736	
82	0	32704	
83	0	32749	
84	0	32784	
85	0	32796	
86	0	32774	
87	0	32820	
88	0	32856	
89	0	32812	
90	0	32780	
91	0	32770	
92	0	32800	
93	0	32788	
94	0	32832	
95	0	32758	
96	0	32753	
97	0	32765	
98	0	32768	
99	0	32824	
100	0	32736	
101	0	32744	
102	0	32684	
103	0	32756	
104	0	32740	
105	0	32796	
106	0	32812	
107	0	32776	
108	0	32844	
109	0	32804	
110	0	32896	
111	0	32852	
112	0	32812	
113	0	32812	
114	0	32844	
115	0	32728	
116	0	32752	
117	0	32724	
118	0	32748	
119	0	32744	
120	0	32696	
121	0	32804	
122	0	32748	
123	0	32720	
124	0	32724	
125	0	32768	
126	0	32736	
127	0	32718	
128	0	32736	
129	0	32793	
130	0	32824	
131	0	32860	
132	0	32904	
133	0	32932	
134	0	32848	
135	0	32780	
136	0	32752	
137	0	32816	
138	0	32724	
139	0	32692	
140	0	32704	
141	0	32724	
142	0	32724	
143	0	32772	
144	0	32772	
145	0	32780	
146	0	32780	
147	0	32808	
148	0	32840	
149	0	32788	
150	0	32772	
151	0	32849	
152	0	32792	
153	0	32828	
154	0	32732	
155	0	32780	
156	0	32824	
157	0	32756	
158	0	32724	
159	0	32756	
160	0	32684	
161	0	32772	
162	0	32730	
163	0	32752	
164	0	32800	
165	0	32833	
166	0	32792	
167	0	32837	
168	0	32812	
169	0	32858	
170	0	32860	
171	0	32828	
172	0	32828	
173	0	32812	
174	0	32812	
175	0	32772	
176	0	32741	
177	0	32752	
178	0	32741	
179	0	32688	
180	0	32712	
181	0	32684	
182	0	32788	
183	0	32700	
184	0	32741	
185	0	32768	
186	0	32796	
187	0	32818	
188	0	32828	
189	0	32820	
190	0	32836	
191	0	32796	
192	0	32812	
193	0	32828	
194	0	32780	
195	0	32797	
196	0	32824	
197	0	32648	
198	0	32696	
199	0	32726	
200	0	32756	
201	0	32772	
202	0	32704	
203	0	32776	
204	0	32876	
205	0	32756	
206	0	32756	
207	0	32828	
208	0	32852	
209	0	32804	
210	0	32820	
211	0	32853	
212	0	32801	
213	0	32782	
214	0	32789	
215	0	32760	
216	0	32756	
217	0	32756	
218	0	32816	
219	0	32736	
220	0	32774	
221	0	32780	
222	0	32728	
223	0	32740	
224	0	32784	
225	0	32724	
226	0	32804	
227	0	32804	
228	0	32816	
229	0	32764	
230	0	32789	
231	0	32816	
232	0	32789	
233	0	32800	
234	0	32788	
235	0	32756	
236	0	32716	
237	0	32692	
238	0	32716	
239	0	32816	
240	0	32832	
241	0	32740	
242	0	32732	
243	0	32720	
244	0	32684	
245	0	32748	
246	0	32776	
247	0	32832	
248	0	32864	
249	0	32884	
250	0	32816	
251	0	32816	
252	0	32880	
253	0	32804	
254	0	32780	
255	0	32768	
256	0	32736	
257	0	32796	
258	0	32832	
259	0	32724	
260	0	32724	
261	0	32749	
262	0	32764	
263	0	32740	
264	0	32840	
265	0	32808	
266	0	32762	
267	0	32781	
268	0	32800	
269	0	32784	
270	0	32760	
271	0	32836	
272	0	32780	
273	0	32796	
274	0	32816	
275	0	32744	
276	0	32852	
277	0	32808	
278	0	32776	
279	0	32640	
280	0	32661	
281	0	32728	
282	0	32716	
283	0	32704	
284	0	32816	
285	0	32808	
286	0	32860	
287	0	32808	
288	0	32740	
289	0	32760	
290	0	32852	
291	0	32840	
292	0	32836	
293	0	32846	
294	0	32824	
295	0	32780	
296	0	32793	
297	0	32712	
298	0	32688	
299	0	32656	
300	0	32700	
301	0	32764	
302	0	32762	
303	0	32757	
304	0	32748	
305	0	32776	
306	0	32800	
307	0	32840	
308	0	32792	
309	0	32772	
310	0	32823	
311	0	32812	
312	0	32870	
313	0	32800	
314	0	32768	
315	0	32808	
316	0	32720	
317	0	32768	
318	0	32764	
319	0	32724	
320	0	32712	
321	0	32732	
322	0	32756	
323	0	32692	
324	0	32760	
325	0	32796	
326	0	32828	
327	0	32804	
328	0	32872	
329	0	32832	
330	0	32808	
331	0	32854	
332	0	32808	
333	0	32844	
334	0	32800	
335	0	32764	
336	0	32784	
337	0	32736	
338	0	32700	
339	0	32676	
340	0	32724	
341	0	32724	
342	0	32797	
343	0	32780	
344	0	32832	
345	0	32772	
346	0	32814	
347	0	32804	
348	0	32816	
349	0	32812	
350	0	32836	
351	0	32828	
352	0	32804	
353	0	32809	
354	0	32826	
355	0	32788	
356	0	32752	
357	0	32788	
358	0	32732	
359	0	32700	
360	0	32704	
361	0	32692	
362	0	32788	
363	0	32724	
364	0	32704	
365	0	32764	
366	0	32852	
367	0	32796	
368	0	32837	
369	0	32748	
370	0	32840	
371	0	32800	
372	0	32805	
373	0	32884	
374	0	32836	
375	0	32776	
376	0	32744	
377	0	32748	
378	0	32772	
379	0	32678	
380	0	32655	
381	0	32702	
382	0	32796	
383	0	32798	
384	0	32844	
385	0	32788	
386	0	32752	
387	0	32797	
388	0	32728	
389	0	32784	
390	0	32860	
391	0	32816	
392	0	32848	
393	0	32772	
394	0	32756	
395	0	32800	
396	0	32804	
397	0	32728	
398	0	32708	
399	0	32716	
400	0	32657	
401	0	32708	
402	0	32756	
403	0	32728	
404	0	32750	
405	0	32772	
406	0	32816	
407	0	32828	
408	0	32788	
409	0	32836	
410	0	32862	
411	0	32820	
412	0	32800	
413	0	32824	
414	0	32768	
415	0	32812	
416	0	32765	
417	0	32804	
418	0	32748	
419	0	32758	
420	0	32712	
421	0	32748	
422	0	32672	
423	0	32776	
424	0	32740	
425	0	32796	
426	0	32793	
427	0	32854	
428	0	32793	
429	0	32784	
430	0	32824	
431	0	32836	
432	0	32764	
433	0	32780	
434	0	32732	
435	0	32828	
436	0	32816	
437	0	32756	
438	0	32724	
439	0	32688	
440	0	32696	
441	0	32698	
442	0	32816	
443	0	32804	
444	0	32748	
445	0	32812	
446	0	32836	
447	0	32780	
448	0	32788	
449	0	32852	
450	0	32884	
451	0	32764	
452	0	32848	
453	0	32836	
454	0	32820	
455	0	32828	
456	0	32716	
457	0	32694	
458	0	32692	
459	0	32775	
460	0	32705	
461	0	32660	
462	0	32700	
463	0	32788	
464	0	32784	
465	0	32776	
466	0	32766	
467	0	32772	
468	0	32756	
469	0	32724	
470	0	32824	
471	0	32792	
472	0	32833	
473	0	32800	
474	0	32788	
475	0	32757	
476	0	32728	
477	0	32720	
478	0	32724	
479	0	32732	
480	0	32780	
481	0	32820	
482	0	32796	
483	0	32828	
484	0	32869	
485	0	32820	
486	0	32820	
487	0	32828	
488	0	32880	
489	0	32897	
490	0	32828	
491	0	32816	
492	0	32840	
493	0	32838	
494	0	32792	
495	0	32794	
496	0	32740	
497	0	32688	
498	0	32668	
499	0	32712	
500	0	32688	
501	0	32790	
502	0	32740	
503	0	32764	
504	0	32800	
505	0	32792	
506	0	32764	
507	0	32756	
508	0	32840	
509	0	32802	
510	0	32760	
511	0	32752	
512	0	32838	
513	0	32868	
514	0	32786	
515	0	32767	
516	0	32752	
517	0	32669	
518	0	32708	
519	0	32752	
520	0	32661	
521	0	32704	
522	0	32772	
523	0	32780	
524	0	32724	
525	0	32740	
526	0	32824	
527	0	32728	
528	0	32824	
529	0	32764	
530	0	32838	
531	0	32817	
532	0	32824	
533	0	32928	
534	0	32856	
535	0	32756	
536	0	32800	
537	0	32756	
538	0	32780	
539	0	32738	
540	0	32628	
541	0	32728	
542	0	32692	
543	0	32748	
544	0	32732	
545	0	32792	
546	0	32780	
547	0	32760	
548	0	32832	
549	0	32828	
550	0	32844	
551	0	32804	
552	0	32840	
553	0	32800	
554	0	32800	
555	0	32676	
556	0	32748	
557	0	32708	
558	0	32772	
559	0	32660	
560	0	32720	
561	0	32788	
562	0	32749	
563	0	32768	
564	0	32796	
565	0	32798	
566	0	32788	
567	0	32812	
568	0	32798	
569	0	32816	
570	0	32778	
571	0	32775	
572	0	32788	
573	0	32736	
574	0	32768	
575	0	32816	
576	0	32748	
577	0	32800	
578	0	32774	
579	0	32732	
580	0	32740	
581	0	32736	
582	0	32764	
583	0	32752	
584	0	32796	
585	0	32760	
586	0	32832	
587	0	32853	
588	0	32809	
589	0	32854	
590	0	32844	
591	0	32764	
592	0	32860	
593	0	32788	
594	0	32829	
595	0	32773	
596	0	32689	
597	0	32772	
598	0	32716	
599	0	32684	
600	0	32720	
601	0	32732	
602	0	32754	
603	0	32752	
604	0	32760	
605	0	32776	
606	0	32796	
607	0	32816	
608	0	32840	
609	0	32880	
610	0	32876	
611	0	32852	
612	0	32880	
613	0	32860	
614	0	32744	
615	0	32660	
616	0	32736	
617	0	32780	
618	0	32676	
619	0	32736	
620	0	32778	
621	0	32840	
622	0	32804	
623	0	32740	
624	0	32761	
625	0	32752	
626	0	32817	
627	0	32813	
628	0	32792	
629	0	32766	
630	0	32820	
631	0	32824	
632	0	32846	
633	0	32793	
634	0	32852	
635	0	32822	
636	0	32872	
637	0	32764	
638	0	32704	
639	0	32698	
640	0	32740	
641	0	32700	
642	0	32756	
643	0	32820	
644	0	32716	
645	0	32792	
646	0	32840	
647	0	32794	
648	0	32829	
649	0	32772	
650	0	32777	
651	0	32852	
652	0	32816	
653	0	32744	
654	0	32748	
655	0	32776	
656	0	32808	
657	0	32776	
658	0	32736	
659	0	32740	
660	0	32672	
661	0	32710	
662	0	32752	
663	0	32768	
664	0	32796	
665	0	32744	
666	0	32764	
667	0	32788	
668	0	32840	
669	0	32800	
670	0	32820	
671	0	32900	
672	0	32840	
673	0	32800	
674	0	32778	
675	0	32752	
676	0	32784	
677	0	32772	
678	0	32668	
679	0	32668	
680	0	32720	
681	0	32800	
682	0	32712	
683	0	32764	
684	0	32836	
685	0	32840	
686	0	32817	
687	0	32796	
688	0	32805	
689	0	32869	
690	0	32840	
691	0	32788	
692	0	32820	
693	0	32716	
694	0	32756	
695	0	32820	
696	0	32716	
697	0	32692	
698	0	32692	
699	0	32688	
700	0	32656	
701	0	32720	
702	0	32782	
703	0	32826	
704	0	32848	
705	0	32846	
706	0	32832	
707	0	32780	
708	0	32744	
709	0	32776	
710	0	32848	
711	0	32876	
712	0	32868	
713	0	32816	
714	0	32852	
715	0	32764	
716	0	32778	
717	0	32760	
718	0	32748	
719	0	32724	
720	0	32725	
721	0	32752	
722	0	32744	
723	0	32741	
724	0	32776	
725	0	32748	
726	0	32748	
727	0	32792	
728	0	32844	
729	0	32828	
730	0	32780	
731	0	32752	
732	0	32868	
733	0	32772	
734	0	32828	
735	0	32764	
736	0	32748	
737	0	32728	
738	0	32788	
739	0	32790	
740	0	32732	
741	0	32701	
742	0	32802	
743	0	32724	
744	0	32756	
745	0	32780	
746	0	32860	
747	0	32804	
748	0	32832	
749	0	32782	
750	0	32748	
751	0	32868	
752	0	32757	
753	0	32864	
754	0	32808	
755	0	32764	
756	0	32700	
757	0	32744	
758	0	32776	
759	0	32662	
760	0	32753	
761	0	32736	
762	0	32778	
763	0	32824	
764	0	32788	
765	0	32808	
766	0	32788	
767	0	32834	
768	0	32804	
769	0	32784	
770	0	32776	
771	0	32832	
772	0	32752	
773	0	32780	
774	0	32837	
775	0	32824	
776	0	32768	
777	0	32777	
778	0	32740	
779	0	32700	
780	0	32664	
781	0	32796	
782	0	32736	
783	0	32766	
784	0	32838	
785	0	32772	
786	0	32760	
787	0	32812	
788	0	32840	
789	0	32804	
790	0	32808	
791	0	32724	
792	0	32820	
793	0	32806	
794	0	32854	
795	0	32776	
796	0	32800	
797	0	32724	
798	0	32792	
799	0	32692	
800	0	32712	
801	0	32724	
802	0	32752	
803	0	32718	
804	0	32701	
805	0	32816	
806	0	32792	
807	0	32816	
808	0	32800	
809	0	32832	
810	0	32876	
811	0	32832	
812	0	32820	
813	0	32808	
814	0	32680	
815	0	32766	
816	0	32724	
817	0	32774	
818	0	32868	
819	0	32732	
820	0	32696	
821	0	32752	
822	0	32720	
823	0	32708	
824	0	32844	
825	0	32748	
826	0	32796	
827	0	32856	
828	0	32766	
829	0	32848	
830	0	32833	
831	0	32789	
832	0	32848	
833	0	32860	
834	0	32816	
835	0	32709	
836	0	32772	
837	0	32676	
838	0	32760	
839	0	32660	
840	0	32736	
841	0	32692	
842	0	32740	
843	0	32812	
844	0	32796	
845	0	32824	
846	0	32812	
847	0	32804	
848	0	32864	
849	0	32812	
850	0	32772	
851	0	32822	
852	0	32885	
853	0	32840	
854	0	32840	
855	0	32820	
856	0	32684	
857	0	32760	
858	0	32774	
859	0	32788	
860	0	32756	
861	0	32716	
862	0	32780	
863	0	32738	
864	0	32704	
865	0	32796	
866	0	32828	
867	0	32748	
868	0	32788	
869	0	32792	
870	0	32792	
871	0	32796	
872	0	32912	
873	0	32860	
874	0	32818	
875	0	32780	
876	0	32752	
877	0	32680	
878	0	32704	
879	0	32708	
880	0	32732	
881	0	32736	
882	0	32772	
883	0	32772	
884	0	32800	
885	0	32740	
886	0	32748	
887	0	32852	
888	0	32844	
889	0	32792	
890	0	32804	
891	0	32794	
892	0	32820	
893	0	32840	
894	0	32820	
895	0	32776	
896	0	32804	
897	0	32757	
898	0	32748	
899	0	32644	
900	0	32696	
901	0	32720	
902	0	32776	
903	0	32780	
904	0	32792	
905	0	32710	
906	0	32812	
907	0	32813	
908	0	32904	
909	0	32876	
910	0	32856	
911	0	32844	
912	0	32864	
913	0	32776	
914	0	32812	
915	0	32708	
916	0	32776	
917	0	32768	
918	0	32776	
919	0	32668	
920	0	32772	
921	0	32760	
922	0	32732	
923	0	32780	
924	0	32804	
925	0	32772	
926	0	32733	
927	0	32708	
928	0	32912	
929	0	32840	
930	0	32888	
931	0	32852	
932	0	32854	
933	0	32785	
934	0	32760	
935	0	32748	
936	0	32672	
937	0	32760	
938	0	32704	
939	0	32700	
940	0	32760	
941	0	32718	
942	0	32748	
943	0	32768	
944	0	32732	
945	0	32832	
946	0	32844	
947	0	32768	
948	0	32796	
949	0	32860	
950	0	32908	
951	0	32820	
952	0	32864	
953	0	32756	
954	0	32740	
955	0	32764	
956	0	32720	
957	0	32732	
958	0	32688	
959	0	32748	
960	0	32804	
961	0	32784	
962	0	32750	
963	0	32768	
964	0	32801	
965	0	32784	
966	0	32792	
967	0	32812	
968	0	32824	
969	0	32752	
970	0	32840	
971	0	32836	
972	0	32800	
973	0	32794	
974	0	32764	
975	0	32760	
976	0	32704	
977	0	32812	
978	0	32722	
979	0	32734	
980	0	32685	
981	0	32764	
982	0	32744	
983	0	32800	
984	0	32800	
985	0	32760	
986	0	32860	
987	0	32780	
988	0	32836	
989	0	32784	
990	0	32860	
991	0	32840	
992	0	32840	
993	0	32864	
994	0	32816	
995	0	32732	
996	0	32784	
997	0	32745	
998	0	32736	
999	0	32738	
1000	0	32712	
1001	0	32748	
1002	0	32720	
1003	0	32788	
1004	0	32792	
1005	0	32852	
1006	0	32768	
1007	0	32840	
1008	0	32868	
1009	0	32800	
1010	0	32792	
1011	0	32788	
1012	0	32852	
1013	0	32852	
1014	0	32788	
1015	0	32772	
1016	0	32768	
1017	0	32752	
1018	0	32730	
1019	0	32688	
1020	0	32717	
1021	0	32788	
1022	0	32804	
1023	0	32776	
1024	0	32748	
1025	0	32801	
1026	0	32864	
1027	0	32844	
1028	0	32876	
1029	0	32829	
1030	0	32804	
1031	0	32804	
1032	0	32816	
1033	0	32780	
1034	0	32732	
1035	0	32700	
1036	0	32784	
1037	0	32696	
1038	0	32670	
1039	0	32696	
1040	0	32680	
1041	0	32752	
1042	0	32732	
1043	0	32680	
1044	0	32780	
1045	0	32772	
1046	0	32808	
1047	0	32804	
1048	0	32888	
1049	0	32876	
1050	0	32856	
1051	0	32926	
1052	0	32924	
1053	0	32876	
1054	0	32900	
1055	0	32824	
1056	0	32808	
1057	0	32820	
1058	0	32744	
1059	0	32744	
1060	0	32745	
1061	0	32741	
1062	0	32816	
1063	0	32804	
1064	0	32781	
1065	0	32768	
1066	0	32740	
1067	0	32776	
1068	0	32760	
1069	0	32768	
1070	0	32772	
1071	0	32840	
1072	0	32836	
1073	0	32884	
1074	0	32848	
1075	0	32787	
1076	0	32732	
1077	0	32716	
1078	0	32728	
1079	0	32720	
1080	0	32656	
1081	0	32724	
1082	0	32725	
1083	0	32756	
1084	0	32854	
1085	0	32756	
1086	0	32868	
1087	0	32832	
1088	0	32770	
1089	0	32784	
1090	0	32768	
1091	0	32780	
1092	0	32828	
1093	0	32812	
1094	0	32812	
1095	0	32796	
1096	0	32713	
1097	0	32716	
1098	0	32692	
1099	0	32756	
1100	0	32768	
1101	0	32800	
1102	0	32752	
1103	0	32756	
1104	0	32816	
1105	0	32796	
1106	0	32832	
1107	0	32873	
1108	0	32876	
1109	0	32904	
1110	0	32876	
1111	0	32868	
1112	0	32869	
1113	0	32876	
1114	0	32812	
1115	0	32770	
1116	0	32724	
1117	0	32784	
1118	0	32748	
1119	0	32705	
1120	0	32752	
1121	0	32764	
1122	0	32732	
1123	0	32756	
1124	0	32804	
1125	0	32792	
1126	0	32760	
1127	0	32768	
1128	0	32780	
1129	0	32852	
1130	0	32784	
1131	0	32804	
1132	0	32842	
1133	0	32821	
1134	0	32676	
1135	0	32741	
1136	0	32708	
1137	0	32751	
1138	0	32690	
1139	0	32688	
1140	0	32718	
1141	0	32704	
1142	0	32732	
1143	0	32788	
1144	0	32798	
1145	0	32836	
1146	0	32776	
1147	0	32748	
1148	0	32780	
1149	0	32752	
1150	0	32761	
1151	0	32776	
1152	0	32828	
1153	0	32804	
1154	0	32820	
1155	0	32775	
1156	0	32741	
1157	0	32736	
1158	0	32661	
1159	0	32684	
1160	0	32724	
1161	0	32680	
1162	0	32708	
1163	0	32804	
1164	0	32764	
1165	0	32804	
1166	0	32778	
1167	0	32796	
1168	0	32804	
1169	0	32833	
1170	0	32884	
1171	0	32861	
1172	0	32884	
1173	0	32876	
1174	0	32816	
1175	0	32780	
1176	0	32668	
1177	0	32742	
1178	0	32576	
1179	0	32708	
1180	0	32712	
1181	0	32710	
1182	0	32728	
1183	0	32796	
1184	0	32776	
1185	0	32800	
1186	0	32776	
1187	0	32844	
1188	0	32796	
1189	0	32848	
1190	0	32792	
1191	0	32868	
1192	0	32860	
1193	0	32872	
1194	0	32828	
1195	0	32804	
1196	0	32684	
1197	0	32724	
1198	0	32732	
1199	0	32724	
1200	0	32704	
1201	0	32742	
1202	0	32732	
1203	0	32800	
1204	0	32760	
1205	0	32792	
1206	0	32836	
1207	0	32908	
1208	0	32881	
1209	0	32816	
1210	0	32756	
1211	0	32796	
1212	0	32852	
1213	0	32824	
1214	0	32769	
1215	0	32660	
1216	0	32672	
1217	0	32785	
1218	0	32788	
1219	0	32684	
1220	0	32708	
1221	0	32716	
1222	0	32760	
1223	0	32772	
1224	0	32772	
1225	0	32824	
1226	0	32780	
1227	0	32768	
1228	0	32828	
1229	0	32825	
1230	0	32804	
1231	0	32836	
1232	0	32900	
1233	0	32826	
1234	0	32792	
1235	0	32776	
1236	0	32749	
1237	0	32772	
1238	0	32736	
1239	0	32636	
1240	0	32728	
1241	0	32752	
1242	0	32764	
1243	0	32724	
1244	0	32800	
1245	0	32820	
1246	0	32848	
1247	0	32880	
1248	0	32832	
1249	0	32856	
1250	0	32829	
1251	0	32756	
1252	0	32808	
1253	0	32852	
1254	0	32820	
1255	0	32728	
1256	0	32741	
1257	0	32700	
1258	0	32572	
1259	0	32756	
1260	0	32712	
1261	0	32749	
1262	0	32686	
1263	0	32752	
1264	0	32744	
1265	0	32800	
1266	0	32780	
1267	0	32828	
1268	0	32820	
1269	0	32828	
1270	0	32840	
1271	0	32864	
1272	0	32876	
1273	0	32876	
1274	0	32800	
1275	0	32812	
1276	0	32752	
1277	0	32676	
1278	0	32685	
1279	0	32668	
1280	0	32744	
1281	0	32718	
1282	0	32824	
1283	0	32824	
1284	0	32844	
1285	0	32760	
1286	0	32812	
1287	0	32800	
1288	0	32804	
1289	0	32768	
1290	0	32788	
1291	0	32824	
1292	0	32900	
1293	0	32854	
1294	0	32796	
1295	0	32810	
1296	0	32732	
1297	0	32708	
1298	0	32646	
1299	0	32670	
1300	0	32724	
1301	0	32700	
1302	0	32784	
1303	0	32756	
1304	0	32784	
1305	0	32760	
1306	0	32836	
1307	0	32900	
1308	0	32824	
1309	0	32772	
1310	0	32840	
1311	0	32909	
1312	0	32892	
1313	0	32856	
1314	0	32813	
1315	0	32750	
1316	0	32676	
1317	0	32708	
1318	0	32740	
1319	0	32680	
1320	0	32708	
1321	0	32624	
1322	0	32678	
1323	0	32764	
1324	0	32776	
1325	0	32856	
1326	0	32877	
1327	0	32760	
1328	0	32768	
1329	0	32869	
1330	0	32856	
1331	0	32916	
1332	0	32916	
1333	0	32868	
1334	0	32788	
1335	0	32800	
1336	0	32712	
1337	0	32724	
1338	0	32624	
1339	0	32664	
1340	0	32724	
1341	0	32748	
1342	0	32744	
1343	0	32764	
1344	0	32788	
1345	0	32828	
1346	0	32840	
1347	0	32764	
1348	0	32801	
1349	0	32822	
1350	0	32876	
1351	0	32900	
1352	0	32948	
1353	0	32812	
1354	0	32805	
1355	0	32684	
1356	0	32680	
1357	0	32660	
1358	0	32720	
1359	0	32748	
1360	0	32740	
1361	0	32740	
1362	0	32764	
1363	0	32768	
1364	0	32848	
1365	0	32785	
1366	0	32772	
1367	0	32796	
1368	0	32876	
1369	0	32800	
1370	0	32792	
1371	0	32876	
1372	0	32912	
1373	0	32796	
1374	0	32788	
1375	0	32796	
1376	0	32724	
1377	0	32692	
1378	0	32748	
1379	0	32628	
1380	0	32684	
1381	0	32668	
1382	0	32748	
1383	0	32808	
1384	0	32768	
1385	0	32816	
1386	0	32826	
1387	0	32848	
1388	0	32828	
1389	0	32816	
1390	0	32840	
1391	0	32904	
1392	0	32885	
1393	0	32844	
1394	0	32780	
1395	0	32748	
1396	0	32720	
1397	0	32720	
1398	0	32712	
1399	0	32668	
1400	0	32692	
1401	0	32660	
1402	0	32768	
1403	0	32768	
1404	0	32822	
1405	0	32844	
1406	0	32840	
1407	0	32828	
1408	0	32824	
1409	0	32856	
1410	0	32828	
1411	0	32860	
1412	0	32816	
1413	0	32844	
1414	0	32824	
1415	0	32774	
1416	0	32716	
1417	0	32734	
1418	0	32752	
1419	0	32716	
1420	0	32700	
1421	0	32748	
1422	0	32780	
1423	0	32804	
1424	0	32828	
1425	0	32796	
1426	0	32736	
1427	0	32824	
1428	0	32820	
1429	0	32860	
1430	0	32852	
1431	0	32876	
1432	0	32856	
1433	0	32824	
1434	0	32784	
1435	0	32724	
1436	0	32753	
1437	0	32680	
1438	0	32616	
1439	0	32660	
1440	0	32689	
1441	0	32712	
1442	0	32812	
1443	0	32815	
1444	0	32812	
1445	0	32792	
1446	0	32808	
1447	0	32860	
1448	0	32844	
1449	0	32756	
1450	0	32784	
1451	0	32868	
1452	0	32928	
1453	0	32838	
1454	0	32816	
1455	0	32775	
1456	0	32748	
1457	0	32696	
1458	0	32676	
1459	0	32662	
1460	0	32716	
1461	0	32752	
1462	0	32768	
1463	0	32780	
1464	0	32848	
1465	0	32780	
1466	0	32806	
1467	0	32788	
1468	0	32784	
1469	0	32840	
1470	0	32868	
1471	0	32846	
1472	0	32901	
1473	0	32813	
1474	0	32856	
1475	0	32748	
1476	0	32648	
1477	0	32672	
1478	0	32700	
1479	0	32678	
1480	0	32708	
1481	0	32812	
1482	0	32836	
1483	0	32776	
1484	0	32768	
1485	0	32848	
1486	0	32840	
1487	0	32816	
1488	0	32772	
1489	0	32856	
1490	0	32812	
1491	0	32848	
1492	0	32904	
1493	0	32868	
1494	0	32758	
1495	0	32728	
1496	0	32760	
1497	0	32668	
1498	0	32676	
1499	0	32660	
1500	0	32686	
1501	0	32732	
1502	0	32770	
1503	0	32833	
1504	0	32740	
1505	0	32812	
1506	0	32809	
1507	0	32764	
1508	0	32814	
1509	0	32804	
1510	0	32772	
1511	0	32932	
1512	0	32916	
1513	0	32857	
1514	0	32716	
1515	0	32740	
1516	0	32780	
1517	0	32730	
1518	0	32704	
1519	0	32669	
1520	0	32728	
1521	0	32736	
1522	0	32756	
1523	0	32777	
1524	0	32832	
1525	0	32837	
1526	0	32840	
1527	0	32820	
1528	0	32748	
1529	0	32824	
1530	0	32805	
1531	0	32875	
1532	0	32876	
1533	0	32809	
1534	0	32764	
1535	0	32844	
1536	0	32764	
1537	0	32668	
1538	0	32680	
1539	0	32644	
1540	0	32676	
1541	0	32720	
1542	0	32764	
1543	0	32720	
1544	0	32789	
1545	0	32796	
1546	0	32812	
1547	0	32816	
1548	0	32848	
1549	0	32804	
1550	0	32829	
1551	0	32832	
1552	0	32812	
1553	0	32856	
1554	0	32740	
1555	0	32741	
1556	0	32776	
1557	0	32696	
1558	0	32680	
1559	0	32688	
1560	0	32688	
1561	0	32732	
1562	0	32776	
1563	0	32764	
1564	0	32820	
1565	0	32800	
1566	0	32800	
1567	0	32822	
1568	0	32824	
1569	0	32860	
1570	0	32824	
1571	0	32832	
1572	0	32844	
1573	0	32808	
1574	0	32812	
1575	0	32772	
1576	0	32784	
1577	0	32704	
1578	0	32655	
1579	0	32664	
1580	0	32664	
1581	0	32736	
1582	0	32764	
1583	0	32760	
1584	0	32829	
1585	0	32772	
1586	0	32824	
1587	0	32812	
1588	0	32844	
1589	0	32852	
1590	0	32797	
1591	0	32876	
1592	0	32874	
1593	0	32765	
1594	0	32748	
1595	0	32708	
1596	0	32748	
1597	0	32788	
1598	0	32688	
1599	0	32676	
1600	0	32632	
1601	0	32732	
1602	0	32804	
1603	0	32796	
1604	0	32820	
1605	0	32796	
1606	0	32816	
1607	0	32808	
1608	0	32840	
1609	0	32872	
1610	0	32844	
1611	0	32832	
1612	0	32844	
1613	0	32877	
1614	0	32808	
1615	0	32720	
1616	0	32684	
1617	0	32684	
1618	0	32680	
1619	0	32652	
1620	0	32736	
1621	0	32700	
1622	0	32712	
1623	0	32760	
1624	0	32776	
1625	0	32784	
1626	0	32788	
1627	0	32817	
1628	0	32800	
1629	0	32804	
1630	0	32800	
1631	0	32892	
1632	0	32812	
1633	0	32840	
1634	0	32748	
1635	0	32740	
1636	0	32680	
1637	0	32748	
1638	0	32736	
1639	0	32708	
1640	0	32686	
1641	0	32740	
1642	0	32788	
1643	0	32876	
1644	0	32816	
1645	0	32812	
1646	0	32884	
1647	0	32920	
1648	0	32808	
1649	0	32888	
1650	0	32828	
1651	0	32808	
1652	0	32832	
1653	0	32752	
1654	0	32728	
1655	0	32812	
1656	0	32716	
1657	0	32688	
1658	0	32684	
1659	0	32680	
1660	0	32708	
1661	0	32720	
1662	0	32780	
1663	0	32764	
1664	0	32800	
1665	0	32809	
1666	0	32872	
1667	0	32800	
1668	0	32804	
1669	0	32781	
1670	0	32744	
1671	0	32736	
1672	0	32868	
1673	0	32832	
1674	0	32712	
1675	0	32716	
1676	0	32736	
1677	0	32736	
1678	0	32692	
1679	0	32724	
1680	0	32684	
1681	0	32684	
1682	0	32854	
1683	0	32800	
1684	0	32788	
1685	0	32804	
1686	0	32809	
1687	0	32764	
1688	0	32820	
1689	0	32796	
1690	0	32828	
1691	0	32900	
1692	0	32880	
1693	0	32804	
1694	0	32752	
1695	0	32744	
1696	0	32752	
1697	0	32708	
1698	0	32592	
1699	0	32669	
1700	0	32712	
1701	0	32668	
1702	0	32732	
1703	0	32772	
1704	0	32804	
1705	0	32816	
1706	0	32836	
1707	0	32884	
1708	0	32924	
1709	0	32828	
1710	0	32752	
1711	0	32900	
1712	0	32833	
1713	0	32804	
1714	0	32748	
1715	0	32782	
1716	0	32750	
1717	0	32732	
1718	0	32696	
1719	0	32686	
1720	0	32724	
1721	0	32772	
1722	0	32696	
1723	0	32752	
1724	0	32828	
1725	0	32805	
1726	0	32780	
1727	0	32816	
1728	0	32864	
1729	0	32816	
1730	0	32844	
1731	0	32912	
1732	0	32904	
1733	0	32832	
1734	0	32769	
1735	0	32788	
1736	0	32716	
1737	0	32761	
1738	0	32604	
1739	0	32700	
1740	0	32628	
1741	0	32680	
1742	0	32780	
1743	0	32780	
1744	0	32836	
1745	0	32768	
1746	0	32841	
1747	0	32864	
1748	0	32812	
1749	0	32812	
1750	0	32888	
1751	0	32800	
1752	0	32903	
1753	0	32804	
1754	0	32765	
1755	0	32756	
1756	0	32692	
1757	0	32716	
1758	0	32692	
1759	0	32672	
1760	0	32740	
1761	0	32768	
1762	0	32776	
1763	0	32820	
1764	0	32776	
1765	0	32824	
1766	0	32836	
1767	0	32764	
1768	0	32796	
1769	0	32824	
1770	0	32836	
1771	0	32888	
1772	0	32848	
1773	0	32748	
1774	0	32808	
1775	0	32808	
1776	0	32764	
1777	0	32688	
1778	0	32700	
1779	0	32644	
1780	0	32684	
1781	0	32756	
1782	0	32764	
1783	0	32824	
1784	0	32728	
1785	0	32780	
1786	0	32736	
1787	0	32776	
1788	0	32844	
1789	0	32912	
1790	0	32908	
1791	0	32882	
1792	0	32820	
1793	0	32788	
1794	0	32796	
1795	0	32760	
1796	0	32708	
1797	0	32687	
1798	0	32664	
1799	0	32668	
1800	0	32725	
1801	0	32660	
1802	0	32745	
1803	0	32840	
1804	0	32812	
1805	0	32800	
1806	0	32840	
1807	0	32796	
1808	0	32800	
1809	0	32816	
1810	0	32900	
1811	0	32860	
1812	0	32960	
1813	0	32756	
1814	0	32812	
1815	0	32712	
1816	0	32748	
1817	0	32728	
1818	0	32692	
1819	0	32648	
1820	0	32684	
1821	0	32784	
1822	0	32760	
1823	0	32772	
1824	0	32837	
1825	0	32820	
1826	0	32736	
1827	0	32764	
1828	0	32772	
1829	0	32789	
1830	0	32852	
1831	0	32924	
1832	0	32840	
1833	0	32862	
1834	0	32780	
1835	0	32780	
1836	0	32764	
1837	0	32656	
1838	0	32676	
1839	0	32698	
1840	0	32692	
1841	0	32772	
1842	0	32704	
1843	0	32728	
1844	0	32793	
1845	0	32768	
1846	0	32844	
1847	0	32830	
1848	0	32840	
1849	0	32800	
1850	0	32888	
1851	0	32825	
1852	0	32868	
1853	0	32772	
1854	0	32765	
1855	0	32772	
1856	0	32784	
1857	0	32704	
1858	0	32684	
1859	0	32724	
1860	0	32660	
1861	0	32752	
1862	0	32768	
1863	0	32708	
1864	0	32772	
1865	0	32772	
1866	0	32829	
1867	0	32832	
1868	0	32889	
1869	0	32860	
1870	0	32796	
1871	0	32788	
1872	0	32879	
1873	0	32868	
1874	0	32784	
1875	0	32760	
1876	0	32732	
1877	0	32692	
1878	0	32708	
1879	0	32620	
1880	0	32712	
1881	0	32709	
1882	0	32716	
1883	0	32868	
1884	0	32804	
1885	0	32816	
1886	0	32756	
1887	0	32917	
1888	0	32812	
1889	0	32832	
1890	0	32834	
1891	0	32888	
1892	0	32896	
1893	0	32776	
1894	0	32798	
1895	0	32720	
1896	0	32708	
1897	0	32684	
1898	0	32628	
1899	0	32708	
1900	0	32773	
1901	0	32740	
1902	0	32708	
1903	0	32728	
1904	0	32820	
1905	0	32866	
1906	0	32788	
1907	0	32801	
1908	0	32780	
1909	0	32840	
1910	0	32796	
1911	0	32892	
1912	0	32868	
1913	0	32848	
1914	0	32780	
1915	0	32808	
1916	0	32780	
1917	0	32676	
1918	0	32688	
1919	0	32716	
1920	0	32716	
1921	0	32780	
1922	0	32772	
1923	0	32740	
1924	0	32828	
1925	0	32824	
1926	0	32788	
1927	0	32848	
1928	0	32792	
1929	0	32800	
1930	0	32836	
1931	0	32884	
1932	0	32821	
1933	0	32792	
1934	0	32820	
1935	0	32736	
1936	0	32716	
1937	0	32716	
1938	0	32656	
1939	0	32700	
1940	0	32680	
1941	0	32788	
1942	0	32753	
1943	0	32800	
1944	0	32820	
1945	0	32798	
1946	0	32762	
1947	0	32884	
1948	0	32820	
1949	0	32828	
1950	0	32825	
1951	0	32828	
1952	0	32848	
1953	0	32844	
1954	0	32784	
1955	0	32740	
1956	0	32664	
1957	0	32768	
1958	0	32692	
1959	0	32630	
1960	0	32705	
1961	0	32764	
1962	0	32852	
1963	0	32868	
1964	0	32824	
1965	0	32752	
1966	0	32804	
1967	0	32832	
1968	0	32840	
1969	0	32788	
1970	0	32804	
1971	0	32832	
1972	0	32836	
1973	0	32820	
1974	0	32736	
1975	0	32768	
1976	0	32785	
1977	0	32660	
1978	0	32685	
1979	0	32732	
1980	0	32656	
1981	0	32728	
1982	0	32748	
1983	0	32808	
1984	0	32812	
1985	0	32881	
1986	0	32772	
1987	0	32784	
1988	0	32869	
1989	0	32876	
1990	0	32852	
1991	0	32844	
1992	0	32844	
1993	0	32800	
1994	0	32766	
1995	0	32740	
1996	0	32740	
1997	0	32760	
1998	0	32692	
1999	0	32759	
2000	0	32726	
2001	0	32752	
2002	0	32741	
2003	0	32756	
2004	0	32792	
2005	0	32800	
2006	0	32840	
2007	0	32812	
2008	0	32808	
2009	0	32864	
2010	0	32876	
2011	0	32786	
2012	0	32804	
2013	0	32840	
2014	0	32792	
2015	0	32772	
2016	0	32740	
2017	0	32668	
2018	0	32608	
2019	0	32636	
2020	0	32668	
2021	0	32700	
2022	0	32772	
2023	0	32848	
2024	0	32840	
2025	0	32854	
2026	0	32836	
2027	0	32808	
2028	0	32804	
2029	0	32844	
2030	0	32848	
2031	0	32872	
2032	0	32868	
2033	0	32756	
2034	0	32753	
2035	0	32756	
2036	0	32700	
2037	0	32708	
2038	0	32679	
2039	0	32704	
2040	0	32704	
2041	0	32737	
2042	0	32732	
2043	0	32797	
2044	0	32844	
2045	0	32746	
2046	0	32860	
2047	0	32816	
2048	0	32789	
2049	0	32820	
2050	0	32796	
2051	0	32877	
2052	0	32876	
2053	0	32896	
2054	0	32756	
2055	0	32784	
2056	0	32704	
2057	0	32688	
2058	0	32684	
2059	0	32680	
2060	0	32761	
2061	0	32704	
2062	0	32752	
2063	0	32776	
2064	0	32892	
2065	0	32824	
2066	0	32836	
2067	0	32796	
2068	0	32812	
2069	0	32800	
2070	0	32864	
2071	0	32832	
2072	0	32813	
2073	0	32784	
2074	0	32782	
2075	0	32712	
2076	0	32708	
2077	0	32748	
2078	0	32740	
2079	0	32724	
2080	0	32752	
2081	0	32700	
2082	0	32800	
2083	0	32756	
2084	0	32736	
2085	0	32808	
2086	0	32844	
2087	0	32852	
2088	0	32864	
2089	0	32732	
2090	0	32870	
2091	0	32900	
2092	0	32860	
2093	0	32848	
2094	0	32820	
2095	0	32740	
2096	0	32756	
2097	0	32688	
2098	0	32661	
2099	0	32684	
2100	0	32700	
2101	0	32741	
2102	0	32798	
2103	0	32736	
2104	0	32836	
2105	0	32897	
2106	0	32852	
2107	0	32768	
2108	0	32876	
2109	0	32832	
2110	0	32812	
2111	0	32824	
2112	0	32824	
2113	0	32780	
2114	0	32724	
2115	0	32700	
2116	0	32776	
2117	0	32772	
2118	0	32548	
2119	0	32684	
2120	0	32772	
2121	0	32760	
2122	0	32757	
2123	0	32828	
2124	0	32856	
2125	0	32768	
2126	0	32776	
2127	0	32832	
2128	0	32894	
2129	0	32852	
2130	0	32828	
2131	0	32860	
2132	0	32856	
2133	0	32796	
2134	0	32724	
2135	0	32744	
2136	0	32780	
2137	0	32664	
2138	0	32684	
2139	0	32652	
2140	0	32613	
2141	0	32704	
2142	0	32736	
2143	0	32724	
2144	0	32816	
2145	0	32812	
2146	0	32868	
2147	0	32848	
2148	0	32847	
2149	0	32861	
2150	0	32872	
2151	0	32838	
2152	0	32864	
2153	0	32796	
2154	0	32692	
2155	0	32724	
2156	0	32697	
2157	0	32764	
2158	0	32612	
2159	0	32661	
2160	0	32704	
2161	0	32718	
2162	0	32764	
2163	0	32778	
2164	0	32848	
2165	0	32845	
2166	0	32832	
2167	0	32828	
2168	0	32796	
2169	0	32832	
2170	0	32868	
2171	0	32808	
2172	0	32844	
2173	0	32860	
2174	0	32732	
2175	0	32724	
2176	0	32744	
2177	0	32696	
2178	0	32689	
2179	0	32670	
2180	0	32718	
2181	0	32816	
2182	0	32781	
2183	0	32796	
2184	0	32808	
2185	0	32816	
2186	0	32816	
2187	0	32796	
2188	0	32812	
2189	0	32868	
2190	0	32792	
2191	0	32932	
2192	0	32846	
2193	0	32744	
2194	0	32768	
2195	0	32745	
2196	0	32740	
2197	0	32740	
2198	0	32652	
2199	0	32664	
2200	0	32752	
2201	0	32716	
2202	0	32788	
2203	0	32740	
2204	0	32800	
2205	0	32852	
2206	0	32864	
2207	0	32856	
2208	0	32792	
2209	0	32820	
2210	0	32852	
2211	0	32812	
2212	0	32778	
2213	0	32800	
2214	0	32732	
2215	0	32756	
2216	0	32733	
2217	0	32764	
2218	0	32692	
2219	0	32660	
2220	0	32624	
2221	0	32640	
2222	0	32753	
2223	0	32748	
2224	0	32832	
2225	0	32840	
2226	0	32886	
2227	0	32844	
2228	0	32856	
2229	0	32804	
2230	0	32852	
2231	0	32837	
2232	0	32812	
2233	0	32744	
2234	0	32724	
2235	0	32736	
2236	0	32756	
2237	0	32678	
2238	0	32776	
2239	0	32764	
2240	0	32748	
2241	0	32772	
2242	0	32808	
2243	0	32820	
2244	0	32788	
2245	0	32864	
2246	0	32880	
2247	0	32893	
2248	0	32832	
2249	0	32812	
2250	0	32860	
2251	0	32894	
2252	0	32820	
2253	0	32752	
2254	0	32740	
2255	0	32726	
2256	0	32744	
2257	0	32664	
2258	0	32704	
2259	0	32712	
2260	0	32668	
2261	0	32748	
2262	0	32736	
2263	0	32788	
2264	0	32781	
2265	0	32863	
2266	0	32792	
2267	0	32820	
2268	0	32808	
2269	0	32808	
2270	0	32816	
2271	0	32888	
2272	0	32876	
2273	0	32788	
2274	0	32776	
2275	0	32748	
2276	0	32612	
2277	0	32700	
2278	0	32684	
2279	0	32706	
2280	0	32718	
2281	0	32804	
2282	0	32784	
2283	0	32750	
2284	0	32776	
2285	0	32784	
2286	0	32892	
2287	0	32800	
2288	0	32720	
2289	0	32801	
2290	0	32844	
2291	0	32906	
2292	0	32840	
2293	0	32836	
2294	0	32832	
2295	0	32764	
2296	0	32762	
2297	0	32685	
2298	0	32636	
2299	0	32620	
2300	0	32652	
2301	0	32692	
2302	0	32716	
2303	0	32756	
2304	0	32818	
2305	0	32748	
2306	0	32772	
2307	0	32896	
2308	0	32920	
2309	0	32868	
2310	0	32924	
2311	0	32837	
2312	0	32768	
2313	0	32734	
2314	0	32680	
2315	0	32654	
2316	0	32757	
2317	0	32768	
2318	0	32788	
2319	0	32825	
2320	0	32852	
2321	0	32800	
2322	0	32725	
2323	0	32756	
2324	0	32716	
2325	0	32792	
2326	0	32802	
2327	0	32796	
2328	0	32702	
2329	0	32824	
2330	0	32836	
2331	0	32772	
2332	0	32729	
2333	0	32772	
2334	0	32788	
2335	0	32792	
2336	0	32788	
2337	0	32809	
2338	0	32748	
2339	0	32700	
2340	0	32700	
2341	0	32644	
2342	0	32772	
2343	0	32844	
2344	0	32772	
2345	0	32792	
2346	0	32756	
2347	0	32798	
2348	0	32820	
2349	0	32824	
2350	0	32876	
2351	0	32880	
2352	0	32748	
2353	0	32720	
2354	0	32804	
2355	0	32800	
2356	0	32748	
2357	0	32704	
2358	0	32680	
2359	0	32728	
2360	0	32740	
2361	0	32788	
2362	0	32840	
2363	0	32845	
2364	0	32792	
2365	0	32808	
2366	0	32792	
2367	0	32796	
2368	0	32804	
2369	0	32784	
2370	0	32804	
2371	0	32884	
2372	0	32772	
2373	0	32804	
2374	0	32748	
2375	0	32760	
2376	0	32869	
2377	0	32684	
2378	0	32748	
2379	0	32785	
2380	0	32768	
2381	0	32749	
2382	0	32758	
2383	0	32788	
2384	0	32796	
2385	0	32776	
2386	0	32804	
2387	0	32752	
2388	0	32864	
2389	0	32820	
2390	0	32852	
2391	0	32878	
2392	0	32741	
2393	0	32740	
2394	0	32773	
2395	0	32812	
2396	0	32748	
2397	0	32716	
2398	0	32756	
2399	0	32758	
2400	0	32752	
2401	0	32730	
2402	0	32790	
2403	0	32728	
2404	0	32764	
2405	0	32748	
2406	0	32812	
2407	0	32808	
2408	0	32784	
2409	0	32812	
2410	0	32775	
2411	0	32804	
2412	0	32824	
2413	0	32744	
2414	0	32824	
2415	0	32724	
2416	0	32728	
2417	0	32712	
2418	0	32700	
2419	0	32716	
2420	0	32728	
2421	0	32756	
2422	0	32809	
2423	0	32796	
2424	0	32796	
2425	0	32800	
2426	0	32888	
2427	0	32900	
2428	0	32872	
2429	0	32820	
2430	0	32780	
2431	0	32800	
2432	0	32808	
2433	0	32780	
2434	0	32672	
2435	0	32725	
2436	0	32709	
2437	0	32648	
2438	0	32717	
2439	0	32744	
2440	0	32832	
2441	0	32780	
2442	0	32801	
2443	0	32836	
2444	0	32804	
2445	0	32772	
2446	0	32764	
2447	0	32740	
2448	0	32797	
2449	0	32812	
2450	0	32809	
2451	0	32836	
2452	0	32804	
2453	0	32800	
2454	0	32780	
2455	0	32790	
2456	0	32800	
2457	0	32748	
2458	0	32724	
2459	0	32780	
2460	0	32756	
2461	0	32784	
2462	0	32750	
2463	0	32764	
2464	0	32792	
2465	0	32853	
2466	0	32780	
2467	0	32812	
2468	0	32804	
2469	0	32816	
2470	0	32844	
2471	0	32804	
2472	0	32744	
2473	0	32785	
2474	0	32693	
2475	0	32744	
2476	0	32700	
2477	0	32768	
2478	0	32716	
2479	0	32796	
2480	0	32740	
2481	0	32748	
2482	0	32756	
2483	0	32796	
2484	0	32828	
2485	0	32832	
2486	0	32848	
2487	0	32840	
2488	0	32833	
2489	0	32832	
2490	0	32824	
2491	0	32800	
2492	0	32813	
2493	0	32784	
2494	0	32773	
2495	0	32748	
2496	0	32748	
2497	0	32704	
2498	0	32700	
2499	0	32700	
2500	0	32801	
2501	0	32708	
2502	0	32764	
2503	0	32758	
2504	0	32781	
2505	0	32728	
2506	0	32774	
2507	0	32752	
2508	0	32821	
2509	0	32820	
2510	0	32849	
2511	0	32848	
2512	0	32860	
2513	0	32808	
2514	0	32748	
2515	0	32856	
2516	0	32732	
2517	0	32748	
2518	0	32704	
2519	0	32748	
2520	0	32704	
2521	0	32748	
2522	0	32760	
2523	0	32804	
2524	0	32868	
2525	0	32840	
2526	0	32832	
2527	0	32744	
2528	0	32824	
2529	0	32828	
2530	0	32820	
2531	0	32878	
2532	0	32836	
2533	0	32784	
2534	0	32757	
2535	0	32704	
2536	0	32736	
2537	0	32718	
2538	0	32676	
2539	0	32762	
2540	0	32828	
2541	0	32760	
2542	0	32785	
2543	0	32788	
2544	0	32828	
2545	0	32788	
2546	0	32848	
2547	0	32708	
2548	0	32760	
2549	0	32765	
2550	0	32840	
2551	0	32854	
2552	0	32808	
2553	0	32732	
2554	0	32716	
2555	0	32844	
2556	0	32684	
2557	0	32716	
2558	0	32736	
2559	0	32749	
2560	0	32769	
2561	0	32865	
2562	0	32792	
2563	0	32768	
2564	0	32852	
2565	0	32788	
2566	0	32792	
2567	0	32788	
2568	0	32780	
2569	0	32780	
2570	0	32816	
2571	0	32832	
2572	0	32814	
2573	0	32804	
2574	0	32784	
2575	0	32792	
2576	0	32792	
2577	0	32720	
2578	0	32736	
2579	0	32728	
2580	0	32775	
2581	0	32716	
2582	0	32748	
2583	0	32745	
2584	0	32780	
2585	0	32736	
2586	0	32852	
2587	0	32800	
2588	0	32756	
2589	0	32782	
2590	0	32864	
2591	0	32764	
2592	0	32816	
2593	0	32772	
2594	0	32805	
2595	0	32780	
2596	0	32726	
2597	0	32710	
2598	0	32734	
2599	0	32708	
2600	0	32680	
2601	0	32772	
2602	0	32812	
2603	0	32836	
2604	0	32752	
2605	0	32809	
2606	0	32868	
2607	0	32857	
2608	0	32802	
2609	0	32852	
2610	0	32808	
2611	0	32844	
2612	0	32840	
2613	0	32732	
2614	0	32788	
2615	0	32765	
2616	0	32698	
2617	0	32736	
2618	0	32685	
2619	0	32688	
2620	0	32708	
2621	0	32732	
2622	0	32812	
2623	0	32865	
2624	0	32780	
2625	0	32821	
2626	0	32820	
2627	0	32814	
2628	0	32820	
2629	0	32810	
2630	0	32850	
2631	0	32856	
2632	0	32820	
2633	0	32776	
2634	0	32749	
2635	0	32756	
2636	0	32712	
2637	0	32740	
2638	0	32724	
2639	0	32732	
2640	0	32704	
2641	0	32684	
2642	0	32773	
2643	0	32724	
2644	0	32788	
2645	0	32794	
2646	0	32824	
2647	0	32796	
2648	0	32800	
2649	0	32813	
2650	0	32832	
2651	0	32824	
2652	0	32852	
2653	0	32801	
2654	0	32764	
2655	0	32720	
2656	0	32766	
2657	0	32676	
2658	0	32692	
2659	0	32693	
2660	0	32748	
2661	0	32756	
2662	0	32802	
2663	0	32774	
2664	0	32792	
2665	0	32796	
2666	0	32868	
2667	0	32852	
2668	0	32832	
2669	0	32837	
2670	0	32940	
2671	0	32904	
2672	0	32756	
2673	0	32812	
2674	0	32788	
2675	0	32748	
2676	0	32792	
2677	0	32720	
2678	0	32705	
2679	0	32720	
2680	0	32716	
2681	0	32760	
2682	0	32776	
2683	0	32800	
2684	0	32788	
2685	0	32772	
2686	0	32756	
2687	0	32762	
2688	0	32744	
2689	0	32828	
2690	0	32872	
2691	0	32789	
2692	0	32764	
2693	0	32752	
2694	0	32744	
2695	0	32768	
2696	0	32692	
2697	0	32762	
2698	0	32704	
2699	0	32753	
2700	0	32786	
2701	0	32760	
2702	0	32756	
2703	0	32809	
2704	0	32752	
2705	0	32860	
2706	0	32844	
2707	0	32836	
2708	0	32784	
2709	0	32780	
2710	0	32825	
2711	0	32864	
2712	0	32812	
2713	0	32796	
2714	0	32780	
2715	0	32756	
2716	0	32704	
2717	0	32672	
2718	0	32720	
2719	0	32748	
2720	0	32780	
2721	0	32772	
2722	0	32760	
2723	0	32768	
2724	0	32764	
2725	0	32840	
2726	0	32864	
2727	0	32856	
2728	0	32816	
2729	0	32832	
2730	0	32852	
2731	0	32812	
2732	0	32886	
2733	0	32772	
2734	0	32736	
2735	0	32848	
2736	0	32744	
2737	0	32704	
2738	0	32712	
2739	0	32700	
2740	0	32732	
2741	0	32772	
2742	0	32768	
2743	0	32712	
2744	0	32773	
2745	0	32816	
2746	0	32792	
2747	0	32792	
2748	0	32800	
2749	0	32812	
2750	0	32868	
2751	0	32808	
2752	0	32780	
2753	0	32760	
2754	0	32800	
2755	0	32758	
2756	0	32780	
2757	0	32752	
2758	0	32708	
2759	0	32760	
2760	0	32748	
2761	0	32700	
2762	0	32760	
2763	0	32813	
2764	0	32772	
2765	0	32784	
2766	0	32826	
2767	0	32876	
2768	0	32844	
2769	0	32824	
2770	0	32848	
2771	0	32836	
2772	0	32796	
2773	0	32852	
2774	0	32692	
2775	0	32684	
2776	0	32696	
2777	0	32744	
2778	0	32784	
2779	0	32744	
2780	0	32772	
2781	0	32768	
2782	0	32733	
2783	0	32676	
2784	0	32804	
2785	0	32812	
2786	0	32844	
2787	0	32784	
2788	0	32836	
2789	0	32773	
2790	0	32832	
2791	0	32904	
2792	0	32792	
2793	0	32808	
2794	0	32832	
2795	0	32800	
2796	0	32748	
2797	0	32748	
2798	0	32672	
2799	0	32684	
2800	0	32716	
2801	0	32720	
2802	0	32824	
2803	0	32872	
2804	0	32788	
2805	0	32746	
2806	0	32768	
2807	0	32808	
2808	0	32820	
2809	0	32772	
2810	0	32816	
2811	0	32775	
2812	0	32792	
2813	0	32724	
2814	0	32816	
2815	0	32732	
2816	0	32720	
2817	0	32704	
2818	0	32708	
2819	0	32680	
2820	0	32782	
2821	0	32728	
2822	0	32768	
2823	0	32724	
2824	0	32824	
2825	0	32776	
2826	0	32826	
2827	0	32836	
2828	0	32848	
2829	0	32846	
2830	0	32808	
2831	0	32868	
2832	0	32856	
2833	0	32860	
2834	0	32880	
2835	0	32844	
2836	0	32844	
2837	0	32796	
2838	0	32749	
2839	0	32808	
2840	0	32712	
2841	0	32792	
2842	0	32752	
2843	0	32784	
2844	0	32788	
2845	0	32768	
2846	0	32756	
2847	0	32808	
2848	0	32772	
2849	0	32780	
2850	0	32836	
2851	0	32868	
2852	0	32766	
2853	0	32752	
2854	0	32708	
2855	0	32732	
2856	0	32800	
2857	0	32708	
2858	0	32756	
2859	0	32716	
2860	0	32789	
2861	0	32724	
2862	0	32776	
2863	0	32780	
2864	0	32845	
2865	0	32812	
2866	0	32812	
2867	0	32825	
2868	0	32800	
2869	0	32757	
2870	0	32808	
2871	0	32820	
2872	0	32782	
2873	0	32776	
2874	0	32780	
2875	0	32788	
2876	0	32766	
2877	0	32776	
2878	0	32761	
2879	0	32644	
2880	0	32744	
2881	0	32733	
2882	0	32780	
2883	0	32740	
2884	0	32800	
2885	0	32856	
2886	0	32820	
2887	0	32852	
2888	0	32796	
2889	0	32812	
2890	0	32868	
2891	0	32836	
2892	0	32828	
2893	0	32798	
2894	0	32769	
2895	0	32732	
2896	0	32677	
2897	0	32680	
2898	0	32616	
2899	0	32744	
2900	0	32904	
2901	0	32828	
2902	0	32844	
2903	0	32780	
2904	0	32780	
2905	0	32800	
2906	0	32720	
2907	0	32772	
2908	0	32800	
2909	0	32858	
2910	0	32724	
2911	0	32868	
2912	0	32824	
2913	0	32788	
2914	0	32816	
2915	0	32676	
2916	0	32768	
2917	0	32709	
2918	0	32724	
2919	0	32812	
2920	0	32800	
2921	0	32748	
2922	0	32724	
2923	0	32836	
2924	0	32788	
2925	0	32816	
2926	0	32844	
2927	0	32796	
2928	0	32725	
2929	0	32760	
2930	0	32824	
2931	0	32788	
2932	0	32836	
2933	0	32756	
2934	0	32764	
2935	0	32788	
2936	0	32862	
2937	0	32734	
2938	0	32636	
2939	0	32696	
2940	0	32748	
2941	0	32784	
2942	0	32756	
2943	0	32772	
2944	0	32833	
2945	0	32804	
2946	0	32808	
2947	0	32760	
2948	0	32832	
2949	0	32836	
2950	0	32816	
2951	0	32824	
2952	0	32840	
2953	0	32758	
2954	0	32756	
2955	0	32776	
2956	0	32736	
2957	0	32696	
2958	0	32661	
2959	0	32771	
2960	0	32765	
2961	0	32801	
2962	0	32784	
2963	0	32800	
2964	0	32880	
2965	0	32872	
2966	0	32828	
2967	0	32813	
2968	0	32796	
2969	0	32872	
2970	0	32852	
2971	0	32792	
2972	0	32801	
2973	0	32708	
2974	0	32744	
2975	0	32752	
2976	0	32746	
2977	0	32736	
2978	0	32772	
2979	0	32756	
2980	0	32729	
2981	0	32816	
2982	0	32752	
2983	0	32749	
2984	0	32808	
2985	0	32680	
2986	0	32828	
2987	0	32752	
2988	0	32836	
2989	0	32880	
2990	0	32896	
2991	0	32884	
2992	0	32865	
2993	0	32868	
2994	0	32768	
2995	0	32752	
2996	0	32780	
2997	0	32704	
2998	0	32736	
2999	0	32704	
3000	0	32740	
3001	0	32720	
3002	0	32756	
3003	0	32838	
3004	0	32816	
3005	0	32732	
3006	0	32756	
3007	0	32780	
3008	0	32784	
3009	0	32760	
3010	0	32780	
3011	0	32860	
3012	0	32840	
3013	0	32712	
3014	0	32732	
3015	0	32789	
3016	0	32744	
3017	0	32820	
3018	0	32807	
3019	0	32762	
3020	0	32728	
3021	0	32773	
3022	0	32804	
3023	0	32766	
3024	0	32764	
3025	0	32788	
3026	0	32776	
3027	0	32856	
3028	0	32852	
3029	0	32842	
3030	0	32848	
3031	0	32820	
3032	0	32772	
3033	0	32768	
3034	0	32768	
3035	0	32824	
3036	0	32660	
3037	0	32694	
3038	0	32676	
3039	0	32620	
3040	0	32758	
3041	0	32789	
3042	0	32796	
3043	0	32740	
3044	0	32804	
3045	0	32774	
3046	0	32784	
3047	0	32790	
3048	0	32796	
3049	0	32852	
3050	0	32824	
3051	0	32828	
3052	0	32836	
3053	0	32740	
3054	0	32740	
3055	0	32709	
3056	0	32820	
3057	0	32732	
3058	0	32752	
3059	0	32700	
3060	0	32840	
3061	0	32808	
3062	0	32770	
3063	0	32804	
3064	0	32808	
3065	0	32860	
3066	0	32784	
3067	0	32740	
3068	0	32836	
3069	0	32762	
3070	0	32900	
3071	0	32852	
3072	0	32856	
3073	0	32788	
3074	0	32800	
3075	0	32664	
3076	0	32684	
3077	0	32696	
3078	0	32720	
3079	0	32804	
3080	0	32717	
3081	0	32756	
3082	0	32800	
3083	0	32884	
3084	0	32712	
3085	0	32749	
3086	0	32844	
3087	0	32768	
3088	0	32778	
3089	0	32816	
3090	0	32812	
3091	0	32860	
3092	0	32816	
3093	0	32740	
3094	0	32812	
3095	0	32728	
3096	0	32692	
3097	0	32704	
3098	0	32736	
3099	0	32720	
3100	0	32768	
3101	0	32766	
3102	0	32716	
3103	0	32784	
3104	0	32800	
3105	0	32840	
3106	0	32820	
3107	0	32758	
3108	0	32832	
3109	0	32820	
3110	0	32836	
3111	0	32900	
3112	0	32836	
3113	0	32760	
3114	0	32816	
3115	0	32685	
3116	0	32688	
3117	0	32692	
3118	0	32732	
3119	0	32684	
3120	0	32732	
3121	0	32720	
3122	0	32748	
3123	0	32872	
3124	0	32804	
3125	0	32812	
3126	0	32916	
3127	0	32800	
3128	0	32744	
3129	0	32842	
3130	0	32824	
3131	0	32900	
3132	0	32809	
3133	0	32740	
3134	0	32721	
3135	0	32784	
3136	0	32676	
3137	0	32744	
3138	0	32732	
3139	0	32692	
3140	0	32820	
3141	0	32768	
3142	0	32858	
3143	0	32760	
3144	0	32728	
3145	0	32776	
3146	0	32800	
3147	0	32800	
3148	0	32820	
3149	0	32812	
3150	0	32804	
3151	0	32860	
3152	0	32880	
3153	0	32748	
3154	0	32716	
3155	0	32756	
3156	0	32716	
3157	0	32668	
3158	0	32696	
3159	0	32686	
3160	0	32745	
3161	0	32824	
3162	0	32848	
3163	0	32836	
3164	0	32764	
3165	0	32760	
3166	0	32800	
3167	0	32824	
3168	0	32768	
3169	0	32809	
3170	0	32860	
3171	0	32856	
3172	0	32844	
3173	0	32868	
3174	0	32764	
3175	0	32692	
3176	0	32748	
3177	0	32656	
3178	0	32662	
3179	0	32696	
3180	0	32728	
3181	0	32756	
3182	0	32784	
3183	0	32836	
3184	0	32776	
3185	0	32750	
3186	0	32868	
3187	0	32832	
3188	0	32780	
3189	0	32848	
3190	0	32817	
3191	0	32869	
3192	0	32796	
3193	0	32740	
3194	0	32804	
3195	0	32712	
3196	0	32752	
3197	0	32752	
3198	0	32696	
3199	0	32716	
3200	0	32800	
3201	0	32768	
3202	0	32808	
3203	0	32792	
3204	0	32848	
3205	0	32860	
3206	0	32816	
3207	0	32861	
3208	0	32716	
3209	0	32832	
3210	0	32789	
3211	0	32796	
3212	0	32775	
3213	0	32844	
3214	0	32764	
3215	0	32728	
3216	0	32692	
3217	0	32768	
3218	0	32756	
3219	0	32716	
3220	0	32712	
3221	0	32856	
3222	0	32852	
3223	0	32824	
3224	0	32703	
3225	0	32700	
3226	0	32832	
3227	0	32888	
3228	0	32864	
3229	0	32864	
3230	0	32816	
3231	0	32768	
3232	0	32804	
3233	0	32820	
3234	0	32746	
3235	0	32724	
3236	0	32808	
3237	0	32637	
3238	0	32680	
3239	0	32656	
3240	0	32800	
3241	0	32800	
3242	0	32768	
3243	0	32804	
3244	0	32749	
3245	0	32776	
3246	0	32844	
3247	0	32868	
3248	0	32881	
3249	0	32845	
3250	0	32832	
3251	0	32848	
3252	0	32781	
3253	0	32752	
3254	0	32789	
3255	0	32808	
3256	0	32708	
3257	0	32676	
3258	0	32652	
3259	0	32700	
3260	0	32740	
3261	0	32700	
3262	0	32816	
3263	0	32770	
3264	0	32804	
3265	0	32808	
3266	0	32817	
3267	0	32830	
3268	0	32900	
3269	0	32865	
3270	0	32830	
3271	0	32796	
3272	0	32828	
3273	0	32772	
3274	0	32700	
3275	0	32764	
3276	0	32684	
3277	0	32680	
3278	0	32702	
3279	0	32680	
3280	0	32780	
3281	0	32776	
3282	0	32756	
3283	0	32744	
3284	0	32776	
3285	0	32812	
3286	0	32808	
3287	0	32780	
3288	0	32824	
3289	0	32844	
3290	0	32876	
3291	0	32852	
3292	0	32820	
3293	0	32802	
3294	0	32724	
3295	0	32756	
3296	0	32724	
3297	0	32716	
3298	0	32676	
3299	0	32656	
3300	0	32760	
3301	0	32816	
3302	0	32792	
3303	0	32756	
3304	0	32756	
3305	0	32860	
3306	0	32900	
3307	0	32844	
3308	0	32804	
3309	0	32780	
3310	0	32813	
3311	0	32877	
3312	0	32856	
3313	0	32762	
3314	0	32743	
3315	0	32736	
3316	0	32722	
3317	0	32660	
3318	0	32800	
3319	0	32740	
3320	0	32692	
3321	0	32724	
3322	0	32796	
3323	0	32804	
3324	0	32804	
3325	0	32816	
3326	0	32788	
3327	0	32792	
3328	0	32816	
3329	0	32836	
3330	0	32925	
3331	0	32832	
3332	0	32784	
3333	0	32740	
3334	0	32736	
3335	0	32772	
3336	0	32732	
3337	0	32696	
3338	0	32820	
3339	0	32788	
3340	0	32828	
3341	0	32740	
3342	0	32740	
3343	0	32820	
3344	0	32788	
3345	0	32812	
3346	0	32744	
3347	0	32822	
3348	0	32804	
3349	0	32828	
3350	0	32832	
3351	0	32804	
3352	0	32768	
3353	0	32764	
3354	0	32820	
3355	0	32796	
3356	0	32724	
3357	0	32732	
3358	0	32712	
3359	0	32720	
3360	0	32708	
3361	0	32756	
3362	0	32732	
3363	0	32760	
3364	0	32748	
3365	0	32820	
3366	0	32848	
3367	0	32852	
3368	0	32808	
3369	0	32868	
3370	0	32836	
3371	0	32860	
3372	0	32768	
3373	0	32756	
3374	0	32760	
3375	0	32776	
3376	0	32732	
3377	0	32716	
3378	0	32616	
3379	0	32698	
3380	0	32748	
3381	0	32736	
3382	0	32764	
3383	0	32796	
3384	0	32766	
3385	0	32792	
3386	0	32764	
3387	0	32752	
3388	0	32876	
3389	0	32852	
3390	0	32932	
3391	0	32833	
3392	0	32760	
3393	0	32832	
3394	0	32798	
3395	0	32836	
3396	0	32725	
3397	0	32744	
3398	0	32738	
3399	0	32758	
3400	0	32752	
3401	0	32808	
3402	0	32756	
3403	0	32764	
3404	0	32792	
3405	0	32800	
3406	0	32764	
3407	0	32836	
3408	0	32824	
3409	0	32864	
3410	0	32860	
3411	0	32852	
3412	0	32800	
3413	0	32772	
3414	0	32768	
3415	0	32706	
3416	0	32748	
3417	0	32640	
3418	0	32704	
3419	0	32748	
3420	0	32725	
3421	0	32792	
3422	0	32828	
3423	0	32740	
3424	0	32808	
3425	0	32816	
3426	0	32833	
3427	0	32816	
3428	0	32880	
3429	0	32832	
3430	0	32772	
3431	0	32770	
3432	0	32808	
3433	0	32840	
3434	0	32720	
3435	0	32744	
3436	0	32708	
3437	0	32669	
3438	0	32724	
3439	0	32756	
3440	0	32796	
3441	0	32840	
3442	0	32784	
3443	0	32776	
3444	0	32812	
3445	0	32828	
3446	0	32790	
3447	0	32812	
3448	0	32820	
3449	0	32828	
3450	0	32852	
3451	0	32812	
3452	0	32721	
3453	0	32760	
3454	0	32740	
3455	0	32700	
3456	0	32768	
3457	0	32661	
3458	0	32788	
3459	0	32744	
3460	0	32728	
3461	0	32716	
3462	0	32716	
3463	0	32740	
3464	0	32728	
3465	0	32837	
3466	0	32796	
3467	0	32808	
3468	0	32792	
3469	0	32792	
3470	0	32802	
3471	0	32845	
3472	0	32817	
3473	0	32953	
3474	0	32852	
3475	0	32844	
3476	0	32804	
3477	0	32744	
3478	0	32756	
3479	0	32764	
3480	0	32768	
3481	0	32792	
3482	0	32792	
3483	0	32816	
3484	0	32836	
3485	0	32836	
3486	0	32784	
3487	0	32852	
3488	0	32748	
3489	0	32788	
3490	0	32776	
3491	0	32868	
3492	0	32821	
3493	0	32760	
3494	0	32776	
3495	0	32708	
3496	0	32764	
3497	0	32704	
3498	0	32744	
3499	0	32728	
3500	0	32780	
3501	0	32716	
3502	0	32720	
3503	0	32677	
3504	0	32757	
3505	0	32748	
3506	0	32856	
3507	0	32820	
3508	0	32768	
3509	0	32768	
3510	0	32889	
3511	0	32808	
3512	0	32784	
3513	0	32792	
3514	0	32780	
3515	0	32772	
3516	0	32676	
3517	0	32676	
3518	0	32732	
3519	0	32676	
3520	0	32776	
3521	0	32696	
3522	0	32748	
3523	0	32832	
3524	0	32832	
3525	0	32844	
3526	0	32912	
3527	0	32828	
3528	0	32837	
3529	0	32788	
3530	0	32824	
3531	0	32830	
3532	0	32796	
3533	0	32768	
3534	0	32764	
3535	0	32780	
3536	0	32804	
3537	0	32717	
3538	0	32692	
3539	0	32704	
3540	0	32704	
3541	0	32832	
3542	0	32824	
3543	0	32828	
3544	0	32844	
3545	0	32764	
3546	0	32781	
3547	0	32870	
3548	0	32860	
3549	0	32836	
3550	0	32784	
3551	0	32780	
3552	0	32744	
3553	0	32732	
3554	0	32792	
3555	0	32768	
3556	0	32740	
3557	0	32680	
3558	0	32780	
3559	0	32760	
3560	0	32856	
3561	0	32764	
3562	0	32748	
3563	0	32744	
3564	0	32772	
3565	0	32788	
3566	0	32840	
3567	0	32756	
3568	0	32810	
3569	0	32844	
3570	0	32806	
3571	0	32824	
3572	0	32828	
3573	0	32776	
3574	0	32736	
3575	0	32828	
3576	0	32708	
3577	0	32688	
3578	0	32734	
3579	0	32784	
3580	0	32792	
3581	0	32814	
3582	0	32852	
3583	0	32780	
3584	0	32740	
3585	0	32808	
3586	0	32772	
3587	0	32765	
3588	0	32840	
3589	0	32872	
3590	0	32880	
3591	0	32872	
3592	0	32804	
3593	0	32780	
3594	0	32782	
3595	0	32716	
3596	0	32684	
3597	0	32700	
3598	0	32692	
3599	0	32628	
3600	0	32764	
3601	0	32704	
3602	0	32916	
3603	0	32876	
3604	0	32873	
3605	0	32820	
3606	0	32808	
3607	0	32760	
3608	0	32784	
3609	0	32812	
3610	0	32860	
3611	0	32800	
3612	0	32864	
3613	0	32813	
3614	0	32724	
3615	0	32722	
3616	0	32638	
3617	0	32684	
3618	0	32702	
3619	0	32732	
3620	0	32792	
3621	0	32764	
3622	0	32764	
3623	0	32794	
3624	0	32813	
3625	0	32792	
3626	0	32861	
3627	0	32824	
3628	0	32736	
3629	0	32836	
3630	0	32828	
3631	0	32904	
3632	0	32805	
3633	0	32764	
3634	0	32772	
3635	0	32720	
3636	0	32732	
3637	0	32668	
3638	0	32676	
3639	0	32776	
3640	0	32776	
3641	0	32780	
3642	0	32816	
3643	0	32850	
3644	0	32800	
3645	0	32832	
3646	0	32780	
3647	0	32756	
3648	0	32832	
3649	0	32888	
3650	0	32780	
3651	0	32724	
3652	0	32769	
3653	0	32764	
3654	0	32801	
3655	0	32761	
3656	0	32760	
3657	0	32712	
3658	0	32680	
3659	0	32712	
3660	0	32728	
3661	0	32736	
3662	0	32768	
3663	0	32776	
3664	0	32768	
3665	0	32824	
3666	0	32868	
3667	0	32824	
3668	0	32748	
3669	0	32840	
3670	0	32804	
3671	0	32832	
3672	0	32804	
3673	0	32740	
3674	0	32732	
3675	0	32730	
3676	0	32704	
3677	0	32768	
3678	0	32772	
3679	0	32760	
3680	0	32720	
3681	0	32790	
3682	0	32804	
3683	0	32776	
3684	0	32800	
3685	0	32804	
3686	0	32830	
3687	0	32820	
3688	0	32832	
3689	0	32848	
3690	0	32836	
3691	0	32848	
3692	0	32756	
3693	0	32800	
3694	0	32760	
3695	0	32712	
3696	0	32732	
3697	0	32768	
3698	0	32744	
3699	0	32678	
3700	0	32680	
3701	0	32760	
3702	0	32784	
3703	0	32794	
3704	0	32844	
3705	0	32840	
3706	0	32828	
3707	0	32812	
3708	0	32880	
3709	0	32908	
3710	0	32808	
3711	0	32772	
3712	0	32744	
3713	0	32708	
3714	0	32808	
3715	0	32770	
3716	0	32704	
3717	0	32684	
3718	0	32729	
3719	0	32724	
3720	0	32704	
3721	0	32756	
3722	0	32792	
3723	0	32836	
3724	0	32800	
3725	0	32772	
3726	0	32848	
3727	0	32868	
3728	0	32844	
3729	0	32852	
3730	0	32884	
3731	0	32812	
3732	0	32770	
3733	0	32796	
3734	0	32804	
3735	0	32724	
3736	0	32745	
3737	0	32732	
3738	0	32661	
3739	0	32776	
3740	0	32774	
3741	0	32700	
3742	0	32744	
3743	0	32780	
3744	0	32780	
3745	0	32768	
3746	0	32824	
3747	0	32740	
3748	0	32840	
3749	0	32840	
3750	0	32852	
3751	0	32876	
3752	0	32828	
3753	0	32768	
3754	0	32749	
3755	0	32772	
3756	0	32748	
3757	0	32700	
3758	0	32656	
3759	0	32716	
3760	0	32744	
3761	0	32692	
3762	0	32752	
3763	0	32748	
3764	0	32826	
3765	0	32792	
3766	0	32764	
3767	0	32840	
3768	0	32784	
3769	0	32846	
3770	0	32920	
3771	0	32888	
3772	0	32836	
3773	0	32744	
3774	0	32730	
3775	0	32760	
3776	0	32716	
3777	0	32692	
3778	0	32704	
3779	0	32764	
3780	0	32725	
3781	0	32660	
3782	0	32784	
3783	0	32836	
3784	0	32837	
3785	0	32800	
3786	0	32880	
3787	0	32912	
3788	0	32828	
3789	0	32766	
3790	0	32852	
3791	0	32802	
3792	0	32728	
3793	0	32784	
3794	0	32704	
3795	0	32816	
3796	0	32780	
3797	0	32640	
3798	0	32656	
3799	0	32712	
3800	0	32852	
3801	0	32772	
3802	0	32820	
3803	0	32812	
3804	0	32784	
3805	0	32753	
3806	0	32760	
3807	0	32780	
3808	0	32814	
3809	0	32870	
3810	0	32884	
3811	0	32856	
3812	0	32736	
3813	0	32820	
3814	0	32788	
3815	0	32701	
3816	0	32680	
3817	0	32744	
3818	0	32748	
3819	0	32736	
3820	0	32790	
3821	0	32828	
3822	0	32797	
3823	0	32812	
3824	0	32776	
3825	0	32804	
3826	0	32820	
3827	0	32768	
3828	0	32812	
3829	0	32856	
3830	0	32864	
3831	0	32849	
3832	0	32760	
3833	0	32774	
3834	0	32732	
3835	0	32808	
3836	0	32780	
3837	0	32704	
3838	0	32700	
3839	0	32684	
3840	0	32792	
3841	0	32804	
3842	0	32752	
3843	0	32893	
3844	0	32788	
3845	0	32806	
3846	0	32748	
3847	0	32800	
3848	0	32812	
3849	0	32828	
3850	0	32826	
3851	0	32796	
3852	0	32824	
3853	0	32740	
3854	0	32780	
3855	0	32756	
3856	0	32692	
3857	0	32828	
3858	0	32732	
3859	0	32768	
3860	0	32752	
3861	0	32884	
3862	0	32716	
3863	0	32748	
3864	0	32752	
3865	0	32852	
3866	0	32832	
3867	0	32820	
3868	0	32824	
3869	0	32880	
3870	0	32868	
3871	0	32796	
3872	0	32772	
3873	0	32700	
3874	0	32748	
3875	0	32740	
3876	0	32680	
3877	0	32758	
3878	0	32654	
3879	0	32708	
3880	0	32760	
3881	0	32836	
3882	0	32844	
3883	0	32856	
3884	0	32748	
3885	0	32820	
3886	0	32792	
3887	0	32816	
3888	0	32744	
3889	0	32836	
3890	0	32848	
3891	0	32804	
3892	0	32792	
3893	0	32756	
3894	0	32724	
3895	0	32697	
3896	0	32804	
3897	0	32784	
3898	0	32748	
3899	0	32740	
3900	0	32718	
3901	0	32792	
3902	0	32720	
3903	0	32848	
3904	0	32772	
3905	0	32860	
3906	0	32812	
3907	0	32804	
3908	0	32812	
3909	0	32852	
3910	0	32818	
3911	0	32815	
3912	0	32705	
3913	0	32692	
3914	0	32780	
3915	0	32716	
3916	0	32740	
3917	0	32740	
3918	0	32752	
3919	0	32780	
3920	0	32804	
3921	0	32740	
3922	0	32748	
3923	0	32764	
3924	0	32809	
3925	0	32840	
3926	0	32856	
3927	0	32836	
3928	0	32864	
3929	0	32840	
3930	0	32768	
3931	0	32836	
3932	0	32832	
3933	0	32804	
3934	0	32761	
3935	0	32812	
3936	0	32700	
3937	0	32750	
3938	0	32700	
3939	0	32708	
3940	0	32784	
3941	0	32824	
3942	0	32768	
3943	0	32752	
3944	0	32810	
3945	0	32784	
3946	0	32772	
3947	0	32772	
3948	0	32828	
3949	0	32849	
3950	0	32832	
3951	0	32814	
3952	0	32768	
3953	0	32832	
3954	0	32737	
3955	0	32728	
3956	0	32712	
3957	0	32672	
3958	0	32756	
3959	0	32736	
3960	0	32732	
3961	0	32824	
3962	0	32892	
3963	0	32796	
3964	0	32808	
3965	0	32772	
3966	0	32760	
3967	0	32760	
3968	0	32832	
3969	0	32804	
3970	0	32812	
3971	0	32836	
3972	0	32828	
3973	0	32712	
3974	0	32772	
3975	0	32804	
3976	0	32748	
3977	0	32724	
3978	0	32672	
3979	0	32756	
3980	0	32816	
3981	0	32760	
3982	0	32824	
3983	0	32800	
3984	0	32764	
3985	0	32792	
3986	0	32800	
3987	0	32830	
3988	0	32760	
3989	0	32816	
3990	0	32836	
3991	0	32818	
3992	0	32802	
3993	0	32812	
3994	0	32820	
3995	0	32750	
3996	0	32726	
3997	0	32745	
3998	0	32700	
3999	0	32748	
4000	0	32732	
4001	0	32692	
4002	0	32744	
4003	0	32772	
4004	0	32856	
4005	0	32804	
4006	0	32824	
4007	0	32828	
4008	0	32774	
4009	0	32836	
4010	0	32896	
4011	0	32826	
4012	0	32772	
4013	0	32780	
4014	0	32692	
4015	0	32772	
4016	0	32744	
4017	0	32684	
4018	0	32700	
4019	0	32772	
4020	0	32710	
4021	0	32760	
4022	0	32788	
4023	0	32852	
4024	0	32716	
4025	0	32792	
4026	0	32813	
4027	0	32869	
4028	0	32868	
4029	0	32925	
4030	0	32880	
4031	0	32712	
4032	0	32772	
4033	0	32804	
4034	0	32760	
4035	0	32780	
4036	0	32668	
4037	0	32680	
4038	0	32684	
4039	0	32728	
4040	0	32736	
4041	0	32796	
4042	0	32780	
4043	0	32808	
4044	0	32804	
4045	0	32840	
4046	0	32812	
4047	0	32756	
4048	0	32832	
4049	0	32828	
4050	0	32868	
4051	0	32770	
4052	0	32774	
4053	0	32760	
4054	0	32736	
4055	0	32716	
4056	0	32696	
4057	0	32792	
4058	0	32680	
4059	0	32812	
4060	0	32764	
4061	0	32788	
4062	0	32717	
4063	0	32844	
4064	0	32856	
4065	0	32804	
4066	0	32909	
4067	0	32856	
4068	0	32792	
4069	0	32832	
4070	0	32812	
4071	0	32836	
4072	0	32752	
4073	0	32720	
4074	0	32716	
4075	0	32716	
4076	0	32720	
4077	0	32661	
4078	0	32712	
4079	0	32780	
4080	0	32724	
4081	0	32768	
4082	0	32820	
4083	0	32844	
4084	0	32824	
4085	0	32780	
4086	0	32820	
4087	0	32834	
4088	0	32820	
4089	0	32844	
4090	0	32820	
4091	0	32824	
4092	0	32804	
4093	0	32688	
4094	0	32772	
4095	0	32712	
4096	0	32732	
4097	0	32727	
4098	0	32740	
4099	0	32686	
4100	0	32740	
4101	0	32732	
4102	0	32792	
4103	0	32756	
4104	0	32820	
4105	0	32840	
4106	0	32810	
4107	0	32804	
4108	0	32732	
4109	0	32840	
4110	0	32784	
4111	0	32860	
4112	0	32774	
4113	0	32734	
4114	0	32752	
4115	0	32716	
4116	0	32768	
4117	0	32720	
4118	0	32708	
4119	0	32700	
4120	0	32688	
4121	0	32796	
4122	0	32788	
4123	0	32772	
4124	0	32862	
4125	0	32900	
4126	0	32868	
4127	0	32848	
4128	0	32799	
4129	0	32888	
4130	0	32916	
4131	0	32857	
4132	0	32836	
4133	0	32780	
4134	0	32784	
4135	0	32804	
4136	0	32724	
4137	0	32708	
4138	0	32724	
4139	0	32712	
4140	0	32768	
4141	0	32804	
4142	0	32728	
4143	0	32792	
4144	0	32796	
4145	0	32816	
4146	0	32844	
4147	0	32808	
4148	0	32872	
4149	0	32836	
4150	0	32812	
4151	0	32808	
4152	0	32772	
4153	0	32680	
4154	0	32768	
4155	0	32672	
4156	0	32748	
4157	0	32668	
4158	0	32648	
4159	0	32728	
4160	0	32816	
4161	0	32824	
4162	0	32749	
4163	0	32720	
4164	0	32804	
4165	0	32820	
4166	0	32845	
4167	0	32824	
4168	0	32796	
4169	0	32848	
4170	0	32908	
4171	0	32824	
4172	0	32724	
4173	0	32756	
4174	0	32768	
4175	0	32700	
4176	0	32736	
4177	0	32692	
4178	0	32724	
4179	0	32764	
4180	0	32716	
4181	0	32824	
4182	0	32804	
4183	0	32712	
4184	0	32768	
4185	0	32836	
4186	0	32814	
4187	0	32816	
4188	0	32828	
4189	0	32820	
4190	0	32876	
4191	0	32836	
4192	0	32772	
4193	0	32752	
4194	0	32741	
4195	0	32736	
4196	0	32696	
4197	0	32689	
4198	0	32736	
4199	0	32772	
4200	0	32700	
4201	0	32704	
4202	0	32716	
4203	0	32760	
4204	0	32812	
4205	0	32820	
4206	0	32768	
4207	0	32820	
4208	0	32812	
4209	0	32896	
4210	0	32924	
4211	0	32860	
4212	0	32748	
4213	0	32788	
4214	0	32706	
4215	0	32753	
4216	0	32716	
4217	0	32716	
4218	0	32748	
4219	0	32728	
4220	0	32720	
4221	0	32776	
4222	0	32784	
4223	0	32804	
4224	0	32780	
4225	0	32769	
4226	0	32832	
4227	0	32836	
4228	0	32840	
4229	0	32782	
4230	0	32822	
4231	0	32860	
4232	0	32768	
4233	0	32784	
4234	0	32768	
4235	0	32775	
4236	0	32744	
4237	0	32706	
4238	0	32628	
4239	0	32740	
4240	0	32744	
4241	0	32728	
4242	0	32736	
4243	0	32848	
4244	0	32792	
4245	0	32816	
4246	0	32856	
4247	0	32808	
4248	0	32840	
4249	0	32865	
4250	0	32848	
4251	0	32852	
4252	0	32748	
4253	0	32736	
4254	0	32804	
4255	0	32768	
4256	0	32740	
4257	0	32700	
4258	0	32732	
4259	0	32720	
4260	0	32796	
4261	0	32732	
4262	0	32813	
4263	0	32797	
4264	0	32808	
4265	0	32836	
4266	0	32780	
4267	0	32792	
4268	0	32853	
4269	0	32816	
4270	0	32880	
4271	0	32784	
4272	0	32836	
4273	0	32788	
4274	0	32736	
4275	0	32712	
4276	0	32702	
4277	0	32724	
4278	0	32768	
4279	0	32716	
4280	0	32860	
4281	0	32792	
4282	0	32816	
4283	0	32808	
4284	0	32780	
4285	0	32886	
4286	0	32757	
4287	0	32756	
4288	0	32800	
4289	0	32892	
4290	0	32800	
4291	0	32808	
4292	0	32812	
4293	0	32748	
4294	0	32736	
4295	0	32700	
4296	0	32772	
4297	0	32668	
4298	0	32704	
4299	0	32760	
4300	0	32741	
4301	0	32796	
4302	0	32796	
4303	0	32796	
4304	0	32768	
4305	0	32764	
4306	0	32788	
4307	0	32816	
4308	0	32888	
4309	0	32860	
4310	0	32748	
4311	0	32816	
4312	0	32764	
4313	0	32752	
4314	0	32708	
4315	0	32696	
4316	0	32704	
4317	0	32744	
4318	0	32752	
4319	0	32778	
4320	0	32680	
4321	0	32756	
4322	0	32802	
4323	0	32832	
4324	0	32864	
4325	0	32892	
4326	0	32820	
4327	0	32770	
4328	0	32800	
4329	0	32728	
4330	0	32824	
4331	0	32796	
4332	0	32748	
4333	0	32780	
4334	0	32724	
4335	0	32798	
4336	0	32776	
4337	0	32698	
4338	0	32737	
4339	0	32780	
4340	0	32784	
4341	0	32732	
4342	0	32832	
4343	0	32752	
4344	0	32788	
4345	0	32772	
4346	0	32840	
4347	0	32788	
4348	0	32792	
4349	0	32832	
4350	0	32873	
4351	0	32776	
4352	0	32720	
4353	0	32692	
4354	0	32720	
4355	0	32744	
4356	0	32696	
4357	0	32838	
4358	0	32752	
4359	0	32696	
4360	0	32736	
4361	0	32748	
4362	0	32784	
4363	0	32836	
4364	0	32880	
4365	0	32740	
4366	0	32833	
4367	0	32808	
4368	0	32828	
4369	0	32864	
4370	0	32848	
4371	0	32826	
4372	0	32768	
4373	0	32764	
4374	0	32748	
4375	0	32776	
4376	0	32724	
4377	0	32708	
4378	0	32764	
4379	0	32793	
4380	0	32764	
4381	0	32732	
4382	0	32772	
4383	0	32800	
4384	0	32812	
4385	0	32776	
4386	0	32816	
4387	0	32820	
4388	0	32780	
4389	0	32864	
4390	0	32900	
4391	0	32808	
4392	0	32748	
4393	0	32822	
4394	0	32681	
4395	0	32756	
4396	0	32669	
4397	0	32644	
4398	0	32708	
4399	0	32716	
4400	0	32788	
4401	0	32730	
4402	0	32742	
4403	0	32804	
4404	0	32836	
4405	0	32753	
4406	0	32932	
4407	0	32820	
4408	0	32796	
4409	0	32828	
4410	0	32864	
4411	0	32852	
4412	0	32804	
4413	0	32724	
4414	0	32752	
4415	0	32762	
4416	0	32764	
4417	0	32761	
4418	0	32800	
4419	0	32804	
4420	0	32732	
4421	0	32668	
4422	0	32704	
4423	0	32756	
4424	0	32760	
4425	0	32800	
4426	0	32896	
4427	0	32852	
4428	0	32916	
4429	0	32892	
4430	0	32844	
4431	0	32772	
4432	0	32720	
4433	0	32752	
4434	0	32740	
4435	0	32736	
4436	0	32712	
4437	0	32644	
4438	0	32706	
4439	0	32744	
4440	0	32780	
4441	0	32820	
4442	0	32789	
4443	0	32820	
4444	0	32796	
4445	0	32772	
4446	0	32820	
4447	0	32840	
4448	0	32801	
4449	0	32808	
4450	0	32840	
4451	0	32744	
4452	0	32768	
4453	0	32776	
4454	0	32704	
4455	0	32748	
4456	0	32730	
4457	0	32804	
4458	0	32796	
4459	0	32652	
4460	0	32708	
4461	0	32844	
4462	0	32772	
4463	0	32820	
4464	0	32808	
4465	0	32824	
4466	0	32816	
4467	0	32854	
4468	0	32896	
4469	0	32848	
4470	0	32848	
4471	0	32756	
4472	0	32709	
4473	0	32740	
4474	0	32696	
4475	0	32716	
4476	0	32776	
4477	0	32756	
4478	0	32713	
4479	0	32744	
4480	0	32704	
4481	0	32732	
4482	0	32772	
4483	0	32772	
4484	0	32836	
4485	0	32772	
4486	0	32832	
4487	0	32848	
4488	0	32797	
4489	0	32897	
4490	0	32892	
4491	0	32812	
4492	0	32800	
4493	0	32748	
4494	0	32720	
4495	0	32746	
4496	0	32732	
4497	0	32748	
4498	0	32660	
4499	0	32736	
4500	0	32741	
4501	0	32780	
4502	0	32800	
4503	0	32820	
4504	0	32792	
4505	0	32796	
4506	0	32800	
4507	0	32844	
4508	0	32816	
4509	0	32908	
4510	0	32828	
4511	0	32764	
4512	0	32768	
4513	0	32769	
4514	0	32708	
4515	0	32744	
4516	0	32702	
4517	0	32709	
4518	0	32776	
4519	0	32728	
4520	0	32752	
4521	0	32780	
4522	0	32796	
4523	0	32828	
4524	0	32808	
4525	0	32920	
4526	0	32856	
4527	0	32888	
4528	0	32868	
4529	0	32845	
4530	0	32766	
4531	0	32692	
4532	0	32716	
4533	0	32684	
4534	0	32760	
4535	0	32744	
4536	0	32760	
4537	0	32784	
4538	0	32704	
4539	0	32712	
4540	0	32780	
4541	0	32700	
4542	0	32788	
4543	0	32708	
4544	0	32800	
4545	0	32786	
4546	0	32776	
4547	0	32808	
4548	0	32900	
4549	0	32900	
4550	0	32862	
4551	0	32904	
4552	0	32862	
4553	0	32752	
4554	0	32788	
4555	0	32693	
4556	0	32692	
4557	0	32720	
4558	0	32698	
4559	0	32760	
4560	0	32784	
4561	0	32796	
4562	0	32768	
4563	0	32801	
4564	0	32796	
4565	0	32857	
4566	0	32812	
4567	0	32797	
4568	0	32768	
4569	0	32896	
4570	0	32844	
4571	0	32856	
4572	0	32796	
4573	0	32740	
4574	0	32708	
4575	0	32684	
4576	0	32724	
4577	0	32736	
4578	0	32736	
4579	0	32728	
4580	0	32758	
4581	0	32820	
4582	0	32748	
4583	0	32912	
4584	0	32856	
4585	0	32792	
4586	0	32790	
4587	0	32778	
4588	0	32832	
4589	0	32784	
4590	0	32825	
4591	0	32816	
4592	0	32825	
4593	0	32729	
4594	0	32740	
4595	0	32800	
4596	0	32692	
4597	0	32680	
4598	0	32728	
4599	0	32784	
4600	0	32736	
4601	0	32768	
4602	0	32772	
4603	0	32830	
4604	0	32764	
4605	0	32841	
4606	0	32864	
4607	0	32820	
4608	0	32764	
4609	0	32784	
4610	0	32856	
4611	0	32804	
4612	0	32768	
4613	0	32796	
4614	0	32737	
4615	0	32752	
4616	0	32656	
4617	0	32644	
4618	0	32716	
4619	0	32776	
4620	0	32778	
4621	0	32864	
4622	0	32780	
4623	0	32782	
4624	0	32876	
4625	0	32796	
4626	0	32840	
4627	0	32792	
4628	0	32776	
4629	0	32836	
4630	0	32768	
4631	0	32804	
4632	0	32776	
4633	0	32838	
4634	0	32790	
4635	0	32712	
4636	0	32660	
4637	0	32688	
4638	0	32748	
4639	0	32680	
4640	0	32800	
4641	0	32798	
4642	0	32780	
4643	0	32808	
4644	0	32844	
4645	0	32828	
4646	0	32840	
4647	0	32768	
4648	0	32804	
4649	0	32809	
4650	0	32788	
4651	0	32796	
4652	0	32744	
4653	0	32760	
4654	0	32780	
4655	0	32784	
4656	0	32704	
4657	0	32724	
4658	0	32688	
4659	0	32784	
4660	0	32728	
4661	0	32768	
4662	0	32828	
4663	0	32784	
4664	0	32808	
4665	0	32800	
4666	0	32757	
4667	0	32884	
4668	0	32880	
4669	0	32892	
4670	0	32884	
4671	0	32804	
4672	0	32756	
4673	0	32768	
4674	0	32732	
4675	0	32692	
4676	0	32676	
4677	0	32700	
4678	0	32772	
4679	0	32758	
4680	0	32768	
4681	0	32744	
4682	0	32776	
4683	0	32781	
4684	0	32868	
4685	0	32804	
4686	0	32828	
4687	0	32812	
4688	0	32844	
4689	0	32856	
4690	0	32860	
4691	0	32840	
4692	0	32797	
4693	0	32776	
4694	0	32732	
4695	0	32600	
4696	0	32660	
4697	0	32672	
4698	0	32696	
4699	0	32757	
4700	0	32868	
4701	0	32784	
4702	0	32832	
4703	0	32812	
4704	0	32824	
4705	0	32848	
4706	0	32800	
4707	0	32856	
4708	0	32824	
4709	0	32788	
4710	0	32800	
4711	0	32841	
4712	0	32781	
4713	0	32672	
4714	0	32688	
4715	0	32716	
4716	0	32748	
4717	0	32784	
4718	0	32764	
4719	0	32740	
4720	0	32796	
4721	0	32761	
4722	0	32774	
4723	0	32822	
4724	0	32820	
4725	0	32781	
4726	0	32844	
4727	0	32861	
4728	0	32832	
4729	0	32788	
4730	0	32860	
4731	0	32780	
4732	0	32768	
4733	0	32772	
4734	0	32744	
4735	0	32752	
4736	0	32672	
4737	0	32684	
4738	0	32793	
4739	0	32718	
4740	0	32812	
4741	0	32784	
4742	0	32832	
4743	0	32768	
4744	0	32762	
4745	0	32768	
4746	0	32856	
4747	0	32872	
4748	0	32800	
4749	0	32816	
4750	0	32824	
4751	0	32808	
4752	0	32814	
4753	0	32720	
4754	0	32788	
4755	0	32648	
4756	0	32604	
4757	0	32676	
4758	0	32680	
4759	0	32732	
4760	0	32724	
4761	0	32720	
4762	0	32720	
4763	0	32796	
4764	0	32800	
4765	0	32826	
4766	0	32772	
4767	0	32784	
4768	0	32828	
4769	0	32868	
4770	0	32858	
4771	0	32864	
4772	0	32864	
4773	0	32776	
4774	0	32773	
4775	0	32724	
4776	0	32736	
4777	0	32764	
4778	0	32780	
4779	0	32797	
4780	0	32820	
4781	0	32772	
4782	0	32780	
4783	0	32836	
4784	0	32808	
4785	0	32864	
4786	0	32872	
4787	0	32830	
4788	0	32784	
4789	0	32836	
4790	0	32816	
4791	0	32777	
4792	0	32792	
4793	0	32796	
4794	0	32796	
4795	0	32656	
4796	0	32727	
4797	0	32662	
4798	0	32736	
4799	0	32792	
4800	0	32726	
4801	0	32756	
4802	0	32744	
4803	0	32786	
4804	0	32912	
4805	0	32856	
4806	0	32784	
4807	0	32780	
4808	0	32766	
4809	0	32768	
4810	0	32838	
4811	0	32788	
4812	0	32844	
4813	0	32748	
4814	0	32704	
4815	0	32684	
4816	0	32692	
4817	0	32700	
4818	0	32800	
4819	0	32724	
4820	0	32806	
4821	0	32764	
4822	0	32700	
4823	0	32760	
4824	0	32828	
4825	0	32848	
4826	0	32756	
4827	0	32856	
4828	0	32828	
4829	0	32828	
4830	0	32896	
4831	0	32836	
4832	0	32808	
4833	0	32716	
4834	0	32720	
4835	0	32708	
4836	0	32693	
4837	0	32656	
4838	0	32808	
4839	0	32802	
4840	0	32796	
4841	0	32824	
4842	0	32812	
4843	0	32788	
4844	0	32820	
4845	0	32820	
4846	0	32892	
4847	0	32852	
4848	0	32856	
4849	0	32788	
4850	0	32860	
4851	0	32824	
4852	0	32720	
4853	0	32712	
4854	0	32700	
4855	0	32717	
4856	0	32732	
4857	0	32717	
4858	0	32720	
4859	0	32732	
4860	0	32736	
4861	0	32804	
4862	0	32774	
4863	0	32793	
4864	0	32797	
4865	0	32744	
4866	0	32740	
4867	0	32852	
4868	0	32856	
4869	0	32868	
4870	0	32876	
4871	0	32832	
4872	0	32900	
4873	0	32825	
4874	0	32718	
4875	0	32708	
4876	0	32712	
4877	0	32661	
4878	0	32668	
4879	0	32804	
4880	0	32782	
4881	0	32792	
4882	0	32773	
4883	0	32800	
4884	0	32840	
4885	0	32804	
4886	0	32824	
4887	0	32814	
4888	0	32804	
4889	0	32820	
4890	0	32816	
4891	0	32766	
4892	0	32792	
4893	0	32748	
4894	0	32764	
4895	0	32736	
4896	0	32676	
4897	0	32706	
4898	0	32773	
4899	0	32714	
4900	0	32764	
4901	0	32808	
4902	0	32762	
4903	0	32808	
4904	0	32776	
4905	0	32836	
4906	0	32808	
4907	0	32833	
4908	0	32816	
4909	0	32840	
4910	0	32856	
4911	0	32800	
4912	0	32753	
4913	0	32784	
4914	0	32740	
4915	0	32676	
4916	0	32724	
4917	0	32704	
4918	0	32725	
4919	0	32724	
4920	0	32724	
4921	0	32780	
4922	0	32816	
4923	0	32837	
4924	0	32876	
4925	0	32884	
4926	0	32784	
4927	0	32785	
4928	0	32852	
4929	0	32832	
4930	0	32785	
4931	0	32756	
4932	0	32761	
4933	0	32788	
4934	0	32805	
4935	0	32704	
4936	0	32792	
4937	0	32640	
4938	0	32661	
4939	0	32776	
4940	0	32732	
4941	0	32789	
4942	0	32808	
4943	0	32780	
4944	0	32824	
4945	0	32864	
4946	0	32784	
4947	0	32856	
4948	0	32892	
4949	0	32888	
4950	0	32877	
4951	0	32796	
4952	0	32772	
4953	0	32740	
4954	0	32768	
4955	0	32732	
4956	0	32741	
4957	0	32680	
4958	0	32712	
4959	0	32796	
4960	0	32780	
4961	0	32812	
4962	0	32840	
4963	0	32780	
4964	0	32749	
4965	0	32812	
4966	0	32793	
4967	0	32804	
4968	0	32816	
4969	0	32856	
4970	0	32816	
4971	0	32780	
4972	0	32800	
4973	0	32784	
4974	0	32752	
4975	0	32772	
4976	0	32672	
4977	0	32661	
4978	0	32714	
4979	0	32752	
4980	0	32812	
4981	0	32769	
4982	0	32756	
4983	0	32868	
4984	0	32868	
4985	0	32788	
4986	0	32808	
4987	0	32840	
4988	0	32820	
4989	0	32868	
4990	0	32848	
4991	0	32784	
4992	0	32910	
4993	0	32728	
4994	0	32700	
4995	0	32709	
4996	0	32729	
4997	0	32728	
4998	0	32752	
4999	0	32728	
5000	0	32748	
5001	0	32792	
5002	0	32800	
5003	0	32784	
5004	0	32720	
5005	0	32752	
5006	0	32820	
5007	0	32869	
5008	0	32857	
5009	0	32818	
5010	0	32832	
5011	0	32788	
5012	0	32708	
5013	0	32756	
5014	0	32724	
5015	0	32664	
5016	0	32768	
5017	0	32740	
5018	0	32724	
5019	0	32728	
5020	0	32792	
5021	0	32724	
5022	0	32836	
5023	0	32848	
5024	0	32748	
5025	0	32816	
5026	0	32820	
5027	0	32804	
5028	0	32820	
5029	0	32877	
5030	0	32828	
5031	0	32792	
5032	0	32740	
5033	0	32724	
5034	0	32760	
5035	0	32736	
5036	0	32748	
5037	0	32684	
5038	0	32720	
5039	0	32736	
5040	0	32768	
5041	0	32788	
5042	0	32816	
5043	0	32860	
5044	0	32776	
5045	0	32800	
5046	0	32800	
5047	0	32844	
5048	0	32840	
5049	0	32864	
5050	0	32860	
5051	0	32812	
5052	0	32756	
5053	0	32828	
5054	0	32720	
5055	0	32740	
5056	0	32732	
5057	0	32692	
5058	0	32693	
5059	0	32672	
5060	0	32788	
5061	0	32832	
5062	0	32832	
5063	0	32756	
5064	0	32820	
5065	0	32800	
5066	0	32764	
5067	0	32856	
5068	0	32852	
5069	0	32788	
5070	0	32900	
5071	0	32800	
5072	0	32748	
5073	0	32802	
5074	0	32696	
5075	0	32718	
5076	0	32680	
5077	0	32686	
5078	0	32733	
5079	0	32688	
5080	0	32836	
5081	0	32750	
5082	0	32816	
5083	0	32768	
5084	0	32836	
5085	0	32788	
5086	0	32784	
5087	0	32796	
5088	0	32880	
5089	0	32792	
5090	0	32808	
5091	0	32776	
5092	0	32806	
5093	0	32733	
5094	0	32712	
5095	0	32688	
5096	0	32700	
5097	0	32700	
5098	0	32732	
5099	0	32660	
5100	0	32768	
5101	0	32776	
5102	0	32788	
5103	0	32864	
5104	0	32868	
5105	0	32774	
5106	0	32809	
5107	0	32820	
5108	0	32892	
5109	0	32880	
5110	0	32816	
5111	0	32780	
5112	0	32768	
5113	0	32780	
5114	0	32716	
5115	0	32692	
5116	0	32706	
5117	0	32668	
5118	0	32748	
5119	0	32784	
5120	0	32768	
5121	0	32820	
5122	0	32817	
5123	0	32864	
5124	0	32798	
5125	0	32840	
5126	0	32776	
5127	0	32832	
5128	0	32864	
5129	0	32784	
5130	0	32812	
5131	0	32762	
5132	0	32692	
5133	0	32780	
5134	0	32752	
5135	0	32740	
5136	0	32688	
5137	0	32680	
5138	0	32742	
5139	0	32780	
5140	0	32828	
5141	0	32798	
5142	0	32812	
5143	0	32772	
5144	0	32832	
5145	0	32792	
5146	0	32792	
5147	0	32788	
5148	0	32858	
5149	0	32804	
5150	0	32820	
5151	0	32828	
5152	0	32720	
5153	0	32816	
5154	0	32752	
5155	0	32740	
5156	0	32728	
5157	0	32809	
5158	0	32704	
5159	0	32774	
5160	0	32820	
5161	0	32832	
5162	0	32816	
5163	0	32836	
5164	0	32864	
5165	0	32780	
5166	0	32832	
5167	0	32769	
5168	0	32768	
5169	0	32776	
5170	0	32792	
5171	0	32724	
5172	0	32744	
5173	0	32724	
5174	0	32708	
5175	0	32748	
5176	0	32796	
5177	0	32664	
5178	0	32750	
5179	0	32680	
5180	0	32758	
5181	0	32800	
5182	0	32796	
5183	0	32856	
5184	0	32892	
5185	0	32920	
5186	0	32808	
5187	0	32728	
5188	0	32812	
5189	0	32872	
5190	0	32784	
5191	0	32764	
5192	0	32812	
5193	0	32748	
5194	0	32776	
5195	0	32780	
5196	0	32812	
5197	0	32816	
5198	0	32834	
5199	0	32768	
5200	0	32702	
5201	0	32824	
5202	0	32793	
5203	0	32820	
5204	0	32764	
5205	0	32630	
5206	0	32688	
5207	0	32688	
5208	0	32796	
5209	0	33184	
5210	0	33445	
5211	0	33328	
5212	0	32808	
5213	0	32540	
5214	0	32688	
5215	0	32840	
5216	0	32852	
5217	0	32784	
5218	0	32629	
5219	0	32713	
5220	0	32552	
5221	0	32284	
5222	0	32064	
5223	0	32100	
5224	0	32317	
5225	0	32672	
5226	0	32928	
5227	0	33356	
5228	0	32732	
5229	0	31692	
5230	0	31476	
5231	0	31737	
5232	0	32168	
5233	0	32744	
5234	0	33348	
5235	0	33720	
5236	0	33448	
5237	0	33396	
5238	0	33668	
5239	0	32596	
5240	0	31632	
5241	0	31704	
5242	0	32088	
5243	0	32908	
5244	0	33542	
5245	0	32916	
5246	0	33072	
5247	0	34716	
5248	0	35424	
5249	0	34932	
5250	0	34996	
5251	0	35032	
5252	0	35104	
5253	0	32934	
5254	0	31314	
5255	0	31324	
5256	0	31416	
5257	0	31398	
5258	0	31358	
5259	0	29256	
5260	0	24040	
5261	0	23288	
5262	0	26628	
5263	0	30740	
5264	0	34056	
5265	0	36652	
5266	0	38944	
5267	0	39128	
5268	0	37980	
5269	0	36340	
5270	0	37116	
5271	0	36236	
5272	0	35348	
5273	0	34328	
5274	0	34152	
5275	0	34796	
5276	0	34860	
5277	0	31616	
5278	0	29764	
5279	0	29740	
5280	0	30848	
5281	0	31962	
5282	0	31620	
5283	0	32048	
5284	0	30317	
5285	0	30196	
5286	0	29628	
5287	0	28122	
5288	0	28844	
5289	0	30960	
5290	0	33300	
5291	0	33040	
5292	0	30076	
5293	0	31841	
5294	0	32640	
5295	0	32429	
5296	0	31084	
5297	0	32236	
5298	0	32588	
5299	0	28989	
5300	0	29760	
5301	0	33616	
5302	0	36472	
5303	0	38064	
5304	0	38636	
5305	0	40624	
5306	0	42712	
5307	0	42608	
5308	0	39712	
5309	0	38408	
5310	0	36860	
5311	0	34080	
5312	0	31348	
5313	0	31208	
5314	0	32352	
5315	0	31900	
5316	0	30112	
5317	0	28464	
5318	0	28244	
5319	0	27582	
5320	0	27308	
5321	0	28198	
5322	0	29660	
5323	0	30592	
5324	0	30462	
5325	0	29976	
5326	0	30094	
5327	0	31076	
5328	0	31946	
5329	0	32348	
5330	0	32860	
5331	0	33100	
5332	0	33017	
5333	0	33160	
5334	0	33668	
5335	0	34704	
5336	0	34544	
5337	0	33352	
5338	0	31744	
5339	0	30609	
5340	0	30337	
5341	0	30816	
5342	0	31984	
5343	0	33116	
5344	0	33600	
5345	0	34348	
5346	0	32232	
5347	0	31492	
5348	0	33388	
5349	0	35116	
5350	0	34656	
5351	0	30068	
5352	0	28204	
5353	0	28892	
5354	0	31692	
5355	0	34428	
5356	0	35604	
5357	0	36824	
5358	0	37276	
5359	0	37624	
5360	0	39212	
5361	0	38244	
5362	0	36612	
5363	0	34268	
5364	0	32790	
5365	0	33366	
5366	0	34280	
5367	0	34924	
5368	0	33464	
5369	0	33668	
5370	0	33124	
5371	0	31516	
5372	0	30316	
5373	0	28085	
5374	0	28300	
5375	0	28820	
5376	0	28452	
5377	0	28380	
5378	0	30284	
5379	0	31526	
5380	0	32492	
5381	0	33480	
5382	0	34772	
5383	0	34900	
5384	0	34636	
5385	0	33748	
5386	0	33836	
5387	0	33320	
5388	0	32716	
5389	0	31666	
5390	0	31336	
5391	0	31612	
5392	0	32756	
5393	0	32336	
5394	0	31924	
5395	0	30768	
5396	0	30345	
5397	0	31812	
5398	0	34247	
5399	0	35748	
5400	0	35748	
5401	0	36040	
5402	0	35200	
5403	0	34296	
5404	0	35116	
5405	0	32312	
5406	0	29044	
5407	0	27540	
5408	0	28140	
5409	0	29528	
5410	0	31112	
5411	0	32516	
5412	0	34776	
5413	0	34934	
5414	0	33300	
5415	0	28180	
5416	0	27280	
5417	0	28528	
5418	0	31036	
5419	0	34540	
5420	0	37008	
5421	0	38044	
5422	0	39696	
5423	0	40596	
5424	0	41200	
5425	0	39764	
5426	0	37956	
5427	0	37108	
5428	0	35048	
5429	0	33956	
5430	0	32436	
5431	0	30967	
5432	0	27780	
5433	0	24749	
5434	0	25284	
5435	0	26152	
5436	0	26254	
5437	0	26556	
5438	0	29456	
5439	0	31676	
5440	0	33124	
5441	0	34776	
5442	0	36356	
5443	0	35324	
5444	0	32880	
5445	0	32928	
5446	0	34240	
5447	0	34996	
5448	0	35088	
5449	0	34064	
5450	0	33580	
5451	0	33441	
5452	0	33044	
5453	0	33229	
5454	0	33280	
5455	0	33004	
5456	0	33548	
5457	0	34312	
5458	0	33372	
5459	0	30740	
5460	0	28524	
5461	0	27372	
5462	0	25968	
5463	0	24208	
5464	0	23336	
5465	0	27316	
5466	0	32716	
5467	0	36952	
5468	0	40960	
5469	0	43028	
5470	0	44688	
5471	0	43752	
5472	0	40644	
5473	0	39016	
5474	0	35960	
5475	0	32348	
5476	0	29613	
5477	0	29460	
5478	0	29960	
5479	0	30044	
5480	0	29325	
5481	0	28888	
5482	0	27536	
5483	0	28056	
5484	0	29944	
5485	0	31956	
5486	0	32880	
5487	0	32020	
5488	0	29052	
5489	0	27776	
5490	0	27036	
5491	0	28417	
5492	0	32352	
5493	0	36117	
5494	0	38044	
5495	0	39777	
5496	0	41376	
5497	0	40568	
5498	0	38836	
5499	0	36440	
5500	0	33000	
5501	0	29224	
5502	0	27820	
5503	0	29748	
5504	0	31625	
5505	0	33212	
5506	0	34448	
5507	0	35732	
5508	0	34156	
5509	0	33796	
5510	0	32424	
5511	0	29988	
5512	0	30012	
5513	0	30696	
5514	0	30592	
5515	0	31384	
5516	0	32141	
5517	0	32856	
5518	0	31904	
5519	0	31641	
5520	0	30628	
5521	0	30664	
5522	0	31540	
5523	0	32876	
5524	0	34196	
5525	0	34537	
5526	0	34040	
5527	0	33488	
5528	0	32876	
5529	0	31948	
5530	0	32932	
5531	0	33182	
5532	0	33838	
5533	0	35669	
5534	0	36868	
5535	0	36064	
5536	0	33324	
5537	0	31756	
5538	0	32132	
5539	0	32336	
5540	0	31824	
5541	0	31968	
5542	0	32580	
5543	0	32132	
5544	0	31556	
5545	0	29593	
5546	0	28410	
5547	0	27996	
5548	0	27777	
5549	0	28564	
5550	0	30782	
5551	0	34040	
5552	0	36560	
5553	0	37564	
5554	0	38612	
5555	0	38784	
5556	0	38341	
5557	0	36908	
5558	0	35084	
5559	0	34276	
5560	0	33884	
5561	0	32488	
5562	0	29956	
5563	0	28402	
5564	0	26784	
5565	0	26606	
5566	0	27712	
5567	0	30072	
5568	0	32024	
5569	0	33784	
5570	0	34368	
5571	0	35104	
5572	0	35240	
5573	0	35360	
5574	0	35873	
5575	0	35680	
5576	0	35304	
5577	0	34580	
5578	0	34176	
5579	0	33984	
5580	0	33716	
5581	0	32392	
5582	0	31373	
5583	0	30412	
5584	0	29598	
5585	0	28668	
5586	0	28884	
5587	0	29628	
5588	0	31252	
5589	0	32724	
5590	0	33592	
5591	0	33904	
5592	0	33936	
5593	0	34376	
5594	0	33932	
5595	0	32588	
5596	0	31656	
5597	0	32784	
5598	0	34524	
5599	0	35368	
5600	0	34196	
5601	0	32546	
5602	0	32096	
5603	0	33496	
5604	0	32872	
5605	0	32796	
5606	0	33820	
5607	0	34965	
5608	0	35061	
5609	0	34448	
5610	0	33696	
5611	0	32768	
5612	0	32040	
5613	0	31720	
5614	0	31604	
5615	0	31274	
5616	0	31221	
5617	0	30988	
5618	0	31020	
5619	0	31576	
5620	0	31324	
5621	0	32100	
5622	0	32184	
5623	0	32089	
5624	0	31653	
5625	0	31720	
5626	0	32696	
5627	0	33752	
5628	0	34304	
5629	0	34784	
5630	0	33841	
5631	0	32398	
5632	0	32384	
5633	0	33664	
5634	0	34532	
5635	0	34296	
5636	0	33916	
5637	0	32367	
5638	0	30782	
5639	0	28904	
5640	0	26708	
5641	0	27744	
5642	0	30380	
5643	0	33248	
5644	0	35296	
5645	0	37148	
5646	0	38640	
5647	0	37608	
5648	0	36940	
5649	0	34000	
5650	0	33500	
5651	0	32500	
5652	0	31820	
5653	0	30992	
5654	0	32164	
5655	0	31448	
5656	0	32932	
5657	0	34384	
5658	0	36028	
5659	0	36436	
5660	0	35032	
5661	0	33668	
5662	0	32220	
5663	0	31220	
5664	0	30074	
5665	0	30316	
5666	0	31252	
5667	0	31876	
5668	0	32204	
5669	0	32408	
5670	0	32064	
5671	0	32136	
5672	0	31122	
5673	0	30204	
5674	0	30692	
5675	0	32012	
5676	0	33148	
5677	0	33332	
5678	0	33488	
5679	0	32708	
5680	0	32484	
5681	0	32252	
5682	0	31752	
5683	0	32400	
5684	0	33788	
5685	0	33104	
5686	0	32888	
5687	0	32636	
5688	0	31808	
5689	0	31440	
5690	0	32620	
5691	0	34180	
5692	0	34628	
5693	0	35336	
5694	0	36025	
5695	0	34532	
5696	0	33112	
5697	0	33438	
5698	0	33744	
5699	0	33100	
5700	0	32280	
5701	0	32356	
5702	0	32312	
5703	0	32416	
5704	0	31928	
5705	0	31620	
5706	0	31836	
5707	0	31524	
5708	0	31248	
5709	0	31508	
5710	0	31820	
5711	0	31992	
5712	0	31748	
5713	0	31480	
5714	0	32320	
5715	0	33269	
5716	0	34000	
5717	0	35112	
5718	0	34820	
5719	0	33629	
5720	0	33028	
5721	0	33344	
5722	0	33376	
5723	0	32716	
5724	0	32129	
5725	0	31592	
5726	0	31988	
5727	0	32284	
5728	0	33584	
5729	0	34560	
5730	0	34776	
5731	0	34080	
5732	0	32822	
5733	0	32988	
5734	0	32621	
5735	0	32356	
5736	0	32756	
5737	0	32868	
5738	0	31364	
5739	0	30148	
5740	0	30332	
5741	0	30968	
5742	0	32373	
5743	0	33812	
5744	0	34520	
5745	0	34288	
5746	0	33924	
5747	0	33720	
5748	0	34244	
5749	0	33604	
5750	0	32782	
5751	0	31892	
5752	0	30180	
5753	0	30113	
5754	0	31588	
5755	0	32744	
5756	0	32784	
5757	0	32404	
5758	0	33708	
5759	0	34168	
5760	0	34252	
5761	0	33552	
5762	0	33224	
5763	0	32128	
5764	0	30780	
5765	0	29104	
5766	0	30012	
5767	0	31924	
5768	0	33984	
5769	0	35892	
5770	0	36508	
5771	0	36244	
5772	0	34804	
5773	0	35532	
5774	0	35708	
5775	0	34670	
5776	0	33944	
5777	0	32176	
5778	0	31228	
5779	0	31360	
5780	0	30792	
5781	0	30937	
5782	0	31384	
5783	0	31296	
5784	0	30768	
5785	0	30920	
5786	0	31636	
5787	0	32404	
5788	0	32924	
5789	0	32572	
5790	0	32124	
5791	0	31752	
5792	0	32276	
5793	0	33444	
5794	0	32880	
5795	0	32068	
5796	0	32112	
5797	0	32852	
5798	0	33644	
5799	0	34212	
5800	0	33680	
5801	0	33212	
5802	0	33132	
5803	0	33568	
5804	0	33564	
5805	0	33764	
5806	0	33500	
5807	0	33228	
5808	0	33112	
5809	0	32736	
5810	0	32220	
5811	0	31992	
5812	0	32012	
5813	0	31908	
5814	0	31528	
5815	0	31648	
5816	0	32308	
5817	0	32733	
5818	0	32800	
5819	0	32996	
5820	0	33728	
5821	0	34308	
5822	0	34624	
5823	0	34604	
5824	0	34660	
5825	0	33832	
5826	0	32392	
5827	0	31956	
5828	0	31496	
5829	0	31220	
5830	0	29948	
5831	0	29028	
5832	0	29870	
5833	0	31404	
5834	0	32760	
5835	0	33236	
5836	0	33604	
5837	0	32752	
5838	0	32904	
5839	0	33116	
5840	0	33812	
5841	0	34940	
5842	0	35756	
5843	0	36272	
5844	0	36516	
5845	0	35996	
5846	0	34868	
5847	0	32024	
5848	0	31644	
5849	0	31160	
5850	0	30890	
5851	0	30516	
5852	0	30722	
5853	0	32428	
5854	0	34000	
5855	0	33152	
5856	0	30676	
5857	0	29364	
5858	0	30684	
5859	0	33128	
5860	0	34508	
5861	0	34692	
5862	0	35012	
5863	0	33924	
5864	0	33300	
5865	0	31780	
5866	0	31484	
5867	0	31972	
5868	0	32716	
5869	0	32568	
5870	0	32417	
5871	0	32901	
5872	0	32540	
5873	0	32864	
5874	0	32796	
5875	0	33320	
5876	0	33236	
5877	0	32332	
5878	0	33344	
5879	0	33684	
5880	0	32564	
5881	0	31570	
5882	0	30804	
5883	0	30468	
5884	0	30976	
5885	0	31456	
5886	0	31912	
5887	0	33693	
5888	0	35032	
5889	0	35492	
5890	0	35196	
5891	0	33444	
5892	0	32288	
5893	0	31812	
5894	0	32748	
5895	0	33500	
5896	0	33680	
5897	0	33272	
5898	0	31616	
5899	0	31424	
5900	0	32372	
5901	0	32860	
5902	0	32852	
5903	0	33312	
5904	0	34228	
5905	0	34660	
5906	0	33870	
5907	0	32620	
5908	0	31324	
5909	0	30660	
5910	0	30720	
5911	0	30372	
5912	0	31040	
5913	0	31392	
5914	0	32892	
5915	0	34256	
5916	0	34772	
5917	0	35084	
5918	0	35036	
5919	0	34976	
5920	0	34944	
5921	0	34136	
5922	0	31932	
5923	0	30128	
5924	0	29392	
5925	0	30537	
5926	0	32496	
5927	0	33689	
5928	0	35080	
5929	0	34796	
5930	0	34124	
5931	0	33848	
5932	0	31924	
5933	0	32552	
5934	0	32404	
5935	0	32076	
5936	0	32276	
5937	0	33519	
5938	0	34056	
5939	0	33684	
5940	0	32528	
5941	0	31272	
5942	0	30933	
5943	0	31212	
5944	0	30736	
5945	0	30700	
5946	0	32065	
5947	0	33968	
5948	0	34276	
5949	0	33360	
5950	0	33808	
5951	0	33756	
5952	0	34428	
5953	0	34060	
5954	0	32712	
5955	0	31708	
5956	0	30592	
5957	0	30612	
5958	0	31444	
5959	0	32476	
5960	0	33109	
5961	0	33428	
5962	0	33624	
5963	0	33632	
5964	0	33484	
5965	0	33605	
5966	0	33212	
5967	0	32648	
5968	0	32344	
5969	0	32028	
5970	0	31012	
5971	0	30240	
5972	0	28652	
5973	0	28816	
5974	0	29588	
5975	0	31952	
5976	0	34452	
5977	0	36272	
5978	0	37120	
5979	0	37620	
5980	0	39354	
5981	0	39036	
5982	0	36840	
5983	0	33560	
5984	0	29716	
5985	0	28908	
5986	0	29740	
5987	0	31008	
5988	0	32241	
5989	0	33377	
5990	0	33692	
5991	0	33552	
5992	0	33520	
5993	0	33340	
5994	0	32925	
5995	0	31764	
5996	0	31176	
5997	0	31345	
5998	0	31685	
5999	0	32140	
6000	0	32240	
6001	0	32116	
6002	0	32064	
6003	0	32232	
6004	0	32412	
6005	0	32636	
6006	0	32788	
6007	0	32472	
6008	0	32417	
6009	0	32632	
6010	0	32848	
6011	0	33032	
6012	0	33208	
6013	0	33140	
6014	0	33008	
6015	0	32888	
6016	0	32657	
6017	0	32708	
6018	0	32737	
6019	0	32764	
6020	0	32852	
6021	0	32886	
6022	0	32789	
6023	0	32808	
6024	0	32832	
6025	0	32756	
6026	0	32896	
6027	0	33452	
6028	0	33389	
6029	0	33120	
6030	0	32920	
6031	0	32752	
6032	0	32732	
6033	0	32520	
6034	0	32164	
6035	0	32036	
6036	0	32492	
6037	0	32610	
6038	0	33224	
6039	0	33348	
6040	0	33088	
6041	0	32856	
6042	0	32976	
6043	0	32868	
6044	0	33112	
6045	0	32620	
6046	0	30856	
6047	0	30888	
6048	0	31812	
6049	0	32224	
6050	0	32156	
6051	0	33472	
6052	0	34248	
6053	0	34440	
6054	0	34572	
6055	0	35268	
6056	0	34540	
6057	0	33737	
6058	0	33692	
6059	0	33728	
6060	0	33100	
6061	0	32064	
6062	0	32132	
6063	0	32068	
6064	0	31876	
6065	0	31704	
6066	0	31904	
6067	0	31976	
6068	0	31840	
6069	0	31962	
6070	0	32028	
6071	0	32032	
6072	0	31976	
6073	0	30900	
6074	0	31108	
6075	0	31816	
6076	0	31924	
6077	0	32340	
6078	0	32044	
6079	0	32756	
6080	0	33524	
6081	0	34816	
6082	0	35781	
6083	0	35776	
6084	0	35510	
6085	0	35180	
6086	0	34232	
6087	0	33856	
6088	0	34968	
6089	0	34132	
6090	0	32128	
6091	0	30860	
6092	0	30540	
6093	0	30296	
6094	0	30394	
6095	0	31436	
6096	0	32804	
6097	0	32788	
6098	0	32056	
6099	0	32064	
6100	0	32301	
6101	0	31536	
6102	0	31801	
6103	0	32293	
6104	0	32656	
6105	0	33533	
6106	0	33700	
6107	0	33968	
6108	0	33864	
6109	0	33319	
6110	0	34000	
6111	0	34124	
6112	0	33648	
6113	0	33076	
6114	0	32944	
6115	0	32648	
6116	0	32358	
6117	0	32316	
6118	0	32192	
6119	0	32036	
6120	0	32212	
6121	0	32438	
6122	0	32484	
6123	0	32625	
6124	0	32724	
6125	0	32756	
6126	0	32704	
6127	0	32796	
6128	0	32816	
6129	0	32816	
6130	0	32757	
6131	0	32760	
6132	0	32744	
6133	0	32840	
6134	0	32752	
6135	0	32812	
6136	0	33036	
6137	0	32952	
6138	0	32736	
6139	0	32624	
6140	0	32644	
6141	0	32637	
6142	0	33025	
6143	0	33053	
6144	0	33053	
6145	0	33376	
6146	0	32780	
6147	0	32192	
6148	0	32276	
6149	0	32608	
6150	0	32680	
6151	0	32413	
6152	0	32616	
6153	0	32928	
6154	0	33028	
6155	0	32724	
6156	0	32484	
6157	0	32544	
6158	0	32748	
6159	0	33016	
6160	0	33168	
6161	0	32952	
6162	0	32960	
6163	0	32920	
6164	0	32944	
6165	0	32932	
6166	0	32892	
6167	0	32836	
6168	0	32758	
6169	0	32876	
6170	0	32884	
6171	0	32888	
6172	0	32656	
6173	0	32676	
6174	0	32756	
6175	0	32732	
6176	0	32716	
6177	0	32750	
6178	0	32716	
6179	0	32736	
6180	0	32756	
6181	0	32448	
6182	0	32372	
6183	0	32544	
6184	0	32721	
6185	0	32968	
6186	0	33176	
6187	0	33272	
6188	0	33125	
6189	0	32668	
6190	0	32497	
6191	0	32444	
6192	0	32542	
6193	0	32736	
6194	0	32913	
6195	0	33204	
6196	0	33136	
6197	0	33134	
6198	0	33248	
6199	0	32760	
6200	0	32639	
6201	0	32528	
6202	0	32161	
6203	0	31624	
6204	0	31556	
6205	0	31973	
6206	0	32746	
6207	0	33380	
6208	0	33860	
6209	0	34376	
6210	0	34152	
6211	0	34064	
6212	0	34372	
6213	0	33448	
6214	0	32644	
6215	0	32324	
6216	0	32444	
6217	0	32612	
6218	0	32656	
6219	0	32528	
6220	0	32208	
6221	0	32200	
6222	0	32176	
6223	0	32306	
6224	0	32504	
6225	0	32584	
6226	0	32684	
6227	0	32528	
6228	0	32468	
6229	0	32616	
6230	0	32729	
6231	0	32552	
6232	0	32328	
6233	0	32380	
6234	0	32475	
6235	0	32784	
6236	0	33134	
6237	0	33356	
6238	0	33430	
6239	0	33176	
6240	0	33060	
6241	0	33228	
6242	0	33416	
6243	0	33316	
6244	0	32900	
6245	0	32352	
6246	0	32104	
6247	0	32322	
6248	0	32528	
6249	0	32684	
6250	0	32709	
6251	0	32824	
6252	0	32860	
6253	0	32896	
6254	0	32936	
6255	0	32782	
6256	0	32600	
6257	0	32564	
6258	0	32644	
6259	0	32632	
6260	0	32820	
6261	0	32797	
6262	0	32816	
6263	0	33132	
6264	0	32940	
6265	0	32924	
6266	0	32640	
6267	0	32764	
6268	0	32704	
6269	0	32576	
6270	0	32820	
6271	0	32965	
6272	0	32945	
6273	0	32853	
6274	0	32940	
6275	0	32840	
6276	0	32453	
6277	0	32412	
6278	0	32556	
6279	0	32600	
6280	0	32634	
6281	0	32272	
6282	0	32084	
6283	0	32241	
6284	0	32152	
6285	0	32260	
6286	0	32524	
6287	0	32740	
6288	0	32794	
6289	0	32548	
6290	0	32224	
6291	0	31640	
6292	0	31814	
6293	0	32320	
6294	0	32736	
6295	0	33376	
6296	0	33900	
6297	0	34068	
6298	0	34168	
6299	0	34089	
6300	0	33864	
6301	0	33391	
6302	0	33220	
6303	0	33204	
6304	0	33140	
6305	0	32972	
6306	0	32828	
6307	0	32814	
6308	0	32504	
6309	0	32412	
6310	0	32356	
6311	0	32576	
6312	0	32837	
6313	0	33076	
6314	0	33028	
6315	0	32888	
6316	0	32686	
6317	0	32232	
6318	0	32158	
6319	0	32268	
6320	0	32268	
6321	0	32244	
6322	0	32448	
6323	0	32788	
6324	0	33064	
6325	0	33080	
6326	0	33086	
6327	0	33360	
6328	0	33301	
6329	0	33444	
6330	0	33360	
6331	0	33428	
6332	0	33424	
6333	0	33444	
6334	0	33304	
6335	0	32824	
6336	0	32524	
6337	0	32169	
6338	0	31892	
6339	0	32056	
6340	0	32368	
6341	0	32428	
6342	0	32300	
6343	0	32306	
6344	0	32580	
6345	0	32508	
6346	0	32266	
6347	0	32584	
6348	0	33012	
6349	0	33284	
6350	0	33316	
6351	0	33157	
6352	0	32832	
6353	0	32700	
6354	0	32880	
6355	0	33128	
6356	0	33464	
6357	0	33528	
6358	0	33412	
6359	0	33311	
6360	0	33152	
6361	0	33028	
6362	0	33044	
6363	0	32774	
6364	0	32736	
6365	0	32638	
6366	0	32464	
6367	0	32386	
6368	0	32437	
6369	0	32365	
6370	0	32468	
6371	0	32388	
6372	0	32580	
6373	0	32685	
6374	0	32557	
6375	0	32524	
6376	0	32604	
6377	0	32620	
6378	0	32524	
6379	0	32704	
6380	0	32789	
6381	0	32792	
6382	0	32796	
6383	0	32748	
6384	0	32676	
6385	0	32996	
6386	0	33044	
6387	0	32948	
6388	0	32796	
6389	0	32560	
6390	0	32480	
6391	0	32540	
6392	0	32904	
6393	0	32860	
6394	0	32686	
6395	0	32652	
6396	0	32720	
6397	0	32737	
6398	0	32826	
6399	0	32873	
6400	0	32884	
6401	0	32788	
6402	0	32908	
6403	0	32684	
6404	0	32622	
6405	0	32680	
6406	0	32736	
6407	0	32788	
6408	0	32872	
6409	0	32928	
6410	0	32968	
6411	0	32860	
6412	0	32824	
6413	0	32700	
6414	0	32436	
6415	0	32524	
6416	0	32562	
6417	0	32702	
6418	0	32724	
6419	0	32622	
6420	0	32657	
6421	0	32790	
6422	0	32428	
6423	0	32480	
6424	0	32792	
6425	0	33200	
6426	0	33556	
6427	0	33664	
6428	0	33620	
6429	0	33532	
6430	0	33392	
6431	0	33431	
6432	0	33460	
6433	0	32992	
6434	0	32580	
6435	0	32453	
6436	0	32348	
6437	0	32478	
6438	0	32436	
6439	0	32398	
6440	0	32536	
6441	0	32668	
6442	0	32752	
6443	0	32824	
6444	0	32824	
6445	0	32676	
6446	0	32612	
6447	0	32672	
6448	0	32532	
6449	0	32512	
6450	0	32528	
6451	0	32648	
6452	0	32502	
6453	0	32400	
6454	0	32432	
6455	0	32516	
6456	0	32638	
6457	0	32736	
6458	0	32724	
6459	0	32624	
6460	0	32588	
6461	0	32668	
6462	0	32720	
6463	0	32720	
6464	0	32688	
6465	0	32765	
6466	0	32852	
6467	0	32932	
6468	0	33104	
6469	0	33244	
6470	0	33236	
6471	0	33004	
6472	0	32877	
6473	0	32805	
6474	0	32776	
6475	0	32668	
6476	0	32628	
6477	0	32696	
6478	0	32728	
6479	0	32692	
6480	0	32692	
6481	0	32660	
6482	0	32680	
6483	0	32796	
6484	0	32829	
6485	0	32872	
6486	0	32692	
6487	0	32660	
6488	0	32660	
6489	0	32744	
6490	0	32982	
6491	0	33126	
6492	0	33480	
6493	0	33212	
6494	0	32600	
6495	0	32700	
6496	0	32677	
6497	0	32808	
6498	0	32608	
6499	0	32544	
6500	0	32608	
6501	0	32612	
6502	0	32654	
6503	0	32688	
6504	0	32740	
6505	0	32844	
6506	0	32924	
6507	0	33036	
6508	0	32973	
6509	0	32620	
6510	0	32356	
6511	0	32280	
6512	0	32536	
6513	0	32788	
6514	0	32868	
6515	0	32796	
6516	0	32924	
6517	0	32868	
6518	0	32741	
6519	0	32804	
6520	0	32680	
6521	0	32760	
6522	0	32868	
6523	0	33004	
6524	0	33199	
6525	0	33168	
6526	0	33289	
6527	0	33560	
6528	0	33140	
6529	0	33112	
6530	0	32665	
6531	0	32377	
6532	0	32448	
6533	0	32484	
6534	0	32464	
6535	0	32604	
6536	0	32744	
6537	0	32728	
6538	0	32676	
6539	0	32680	
6540	0	32760	
6541	0	32660	
6542	0	32526	
6543	0	32440	
6544	0	32373	
6545	0	32621	
6546	0	32548	
6547	0	32412	
6548	0	32528	
6549	0	32848	
6550	0	33096	
6551	0	33284	
6552	0	33444	
6553	0	33504	
6554	0	33308	
6555	0	32928	
6556	0	32420	
6557	0	32437	
6558	0	32568	
6559	0	32608	
6560	0	32852	
6561	0	33196	
6562	0	33160	
6563	0	32824	
6564	0	32692	
6565	0	32692	
6566	0	32700	
6567	0	32724	
6568	0	32784	
6569	0	32813	
6570	0	32772	
6571	0	32776	
6572	0	32636	
6573	0	32568	
6574	0	32584	
6575	0	32640	
6576	0	32732	
6577	0	32686	
6578	0	32733	
6579	0	32748	
6580	0	32720	
6581	0	32724	
6582	0	32692	
6583	0	32712	
6584	0	32832	
6585	0	32869	
6586	0	32896	
6587	0	32876	
6588	0	32877	
6589	0	33292	
6590	0	33321	
6591	0	32884	
6592	0	32584	
6593	0	32508	
6594	0	32524	
6595	0	32360	
6596	0	32348	
6597	0	32544	
6598	0	32573	
6599	0	32696	
6600	0	32708	
6601	0	32647	
6602	0	32756	
6603	0	32976	
6604	0	32900	
6605	0	32648	
6606	0	32548	
6607	0	32736	
6608	0	32868	
6609	0	33438	
6610	0	33648	
6611	0	33332	
6612	0	33068	
6613	0	32988	
6614	0	33132	
6615	0	33088	
6616	0	32916	
6617	0	32832	
6618	0	32665	
6619	0	32612	
6620	0	32668	
6621	0	32732	
6622	0	32584	
6623	0	32592	
6624	0	32628	
6625	0	32692	
6626	0	32636	
6627	0	32504	
6628	0	32496	
6629	0	32576	
6630	0	32576	
6631	0	32572	
6632	0	32616	
6633	0	32684	
6634	0	32804	
6635	0	32700	
6636	0	32712	
6637	0	32800	
6638	0	33064	
6639	0	33096	
6640	0	32892	
6641	0	32700	
6642	0	32640	
6643	0	32724	
6644	0	32797	
6645	0	32898	
6646	0	32788	
6647	0	32700	
6648	0	32841	
6649	0	32893	
6650	0	32796	
6651	0	32756	
6652	0	32724	
6653	0	32868	
6654	0	32704	
6655	0	32708	
6656	0	32669	
6657	0	32736	
6658	0	32824	
6659	0	32804	
6660	0	32772	
6661	0	32788	
6662	0	32732	
6663	0	32732	
6664	0	32984	
6665	0	32716	
6666	0	32664	
6667	0	32764	
6668	0	32576	
6669	0	32724	
6670	0	32933	
6671	0	33128	
6672	0	33204	
6673	0	32920	
6674	0	32560	
6675	0	32504	
6676	0	32528	
6677	0	32613	
6678	0	32676	
6679	0	32804	
6680	0	32924	
6681	0	32920	
6682	0	32988	
6683	0	32920	
6684	0	33124	
6685	0	33068	
6686	0	33084	
6687	0	33080	
6688	0	32896	
6689	0	32728	
6690	0	32676	
6691	0	32516	
6692	0	32205	
6693	0	32220	
6694	0	32368	
6695	0	32558	
6696	0	32724	
6697	0	32884	
6698	0	32964	
6699	0	33100	
6700	0	33181	
6701	0	32756	
6702	0	32544	
6703	0	32686	
6704	0	32820	
6705	0	32704	
6706	0	32496	
6707	0	32704	
6708	0	32680	
6709	0	32785	
6710	0	32812	
6711	0	32892	
6712	0	32900	
6713	0	32988	
6714	0	32800	
6715	0	32836	
6716	0	33012	
6717	0	33196	
6718	0	32964	
6719	0	32632	
6720	0	32772	
6721	0	32924	
6722	0	32844	
6723	0	32644	
6724	0	32704	
6725	0	32737	
6726	0	32824	
6727	0	32748	
6728	0	32705	
6729	0	32780	
6730	0	32816	
6731	0	32876	
6732	0	32844	
6733	0	32844	
6734	0	32644	
6735	0	32720	
6736	0	32668	
6737	0	32592	
6738	0	32632	
6739	0	32660	
6740	0	32824	
6741	0	32728	
6742	0	32769	
6743	0	32764	
6744	0	32840	
6745	0	32764	
6746	0	32820	
6747	0	32884	
6748	0	32896	
6749	0	32860	
6750	0	32968	
6751	0	32808	
6752	0	32656	
6753	0	32600	
6754	0	32620	
6755	0	32808	
6756	0	32880	
6757	0	32872	
6758	0	32908	
6759	0	32788	
6760	0	32696	
6761	0	32692	
6762	0	32713	
6763	0	32736	
6764	0	32744	
6765	0	32772	
6766	0	32784	
6767	0	32796	
6768	0	32738	
6769	0	32560	
6770	0	32500	
6771	0	32368	
6772	0	32316	
6773	0	32456	
6774	0	32768	
6775	0	33029	
6776	0	32880	
6777	0	32948	
6778	0	33140	
6779	0	33220	
6780	0	33296	
6781	0	33044	
6782	0	32917	
6783	0	32936	
6784	0	33040	
6785	0	32936	
6786	0	33086	
6787	0	32924	
6788	0	32612	
6789	0	32616	
6790	0	32640	
6791	0	32640	
6792	0	32464	
6793	0	32492	
6794	0	32637	
6795	0	32904	
6796	0	32772	
6797	0	32612	
6798	0	32672	
6799	0	32726	
6800	0	32688	
6801	0	32596	
6802	0	32748	
6803	0	32572	
6804	0	32528	
6805	0	32688	
6806	0	32925	
6807	0	32860	
6808	0	32940	
6809	0	32820	
6810	0	32956	
6811	0	32884	
6812	0	32936	
6813	0	33008	
6814	0	32804	
6815	0	32584	
6816	0	32654	
6817	0	32584	
6818	0	32628	
6819	0	32640	
6820	0	32836	
6821	0	32927	
6822	0	33108	
6823	0	33052	
6824	0	32873	
6825	0	32880	
6826	0	32496	
6827	0	32512	
6828	0	32624	
6829	0	32698	
6830	0	32741	
6831	0	32780	
6832	0	32912	
6833	0	32972	
6834	0	32984	
6835	0	32954	
6836	0	32844	
6837	0	32620	
6838	0	32548	
6839	0	32540	
6840	0	32661	
6841	0	32708	
6842	0	32668	
6843	0	32724	
6844	0	32696	
6845	0	32948	
6846	0	32852	
6847	0	32774	
6848	0	32876	
6849	0	32820	
6850	0	32712	
6851	0	32772	
6852	0	32720	
6853	0	32932	
6854	0	32824	
6855	0	32770	
6856	0	32774	
6857	0	32584	
6858	0	32532	
6859	0	32636	
6860	0	32720	
6861	0	32911	
6862	0	32960	
6863	0	33092	
6864	0	33224	
6865	0	33045	
6866	0	32742	
6867	0	32700	
6868	0	32678	
6869	0	32640	
6870	0	32544	
6871	0	32660	
6872	0	32640	
6873	0	32768	
6874	0	32684	
6875	0	32732	
6876	0	32900	
6877	0	32368	
6878	0	32248	
6879	0	32304	
6880	0	32416	
6881	0	32816	
6882	0	33036	
6883	0	33313	
6884	0	33444	
6885	0	33448	
6886	0	33388	
6887	0	33422	
6888	0	33158	
6889	0	32856	
6890	0	32826	
6891	0	32712	
6892	0	32548	
6893	0	32464	
6894	0	32228	
6895	0	32264	
6896	0	32356	
6897	0	32478	
6898	0	32484	
6899	0	32720	
6900	0	32836	
6901	0	32620	
6902	0	32648	
6903	0	32713	
6904	0	32940	
6905	0	33024	
6906	0	33218	
6907	0	33416	
6908	0	33421	
6909	0	33220	
6910	0	32981	
6911	0	33048	
6912	0	32784	
6913	0	32508	
6914	0	32384	
6915	0	32480	
6916	0	32448	
6917	0	32532	
6918	0	32604	
6919	0	32620	
6920	0	32652	
6921	0	32548	
6922	0	32621	
6923	0	32704	
6924	0	32960	
6925	0	33112	
6926	0	32893	
6927	0	32932	
6928	0	32936	
6929	0	32760	
6930	0	32544	
6931	0	32500	
6932	0	32528	
6933	0	32597	
6934	0	32661	
6935	0	32832	
6936	0	32860	
6937	0	32860	
6938	0	32808	
6939	0	32940	
6940	0	32848	
6941	0	32894	
6942	0	33088	
6943	0	33162	
6944	0	32969	
6945	0	32734	
6946	0	32700	
6947	0	32788	
6948	0	32768	
6949	0	32648	
6950	0	32656	
6951	0	32588	
6952	0	32489	
6953	0	32628	
6954	0	32708	
6955	0	32601	
6956	0	32672	
6957	0	32647	
6958	0	32656	
6959	0	32756	
6960	0	32760	
6961	0	32692	
6962	0	32784	
6963	0	32820	
6964	0	32716	
6965	0	32772	
6966	0	33044	
6967	0	32972	
6968	0	32908	
6969	0	33016	
6970	0	33048	
6971	0	32912	
6972	0	32949	
6973	0	33104	
6974	0	32896	
6975	0	32502	
6976	0	32468	
6977	0	32392	
6978	0	32360	
6979	0	32361	
6980	0	32436	
6981	0	32252	
6982	0	32348	
6983	0	32536	
6984	0	32656	
6985	0	33140	
6986	0	33472	
6987	0	33646	
6988	0	33476	
6989	0	33224	
6990	0	33216	
6991	0	33117	
6992	0	32832	
6993	0	32736	
6994	0	32692	
6995	0	32676	
6996	0	32408	
6997	0	32453	
6998	0	32588	
6999	0	32616	
7000	0	32540	
7001	0	32540	
7002	0	32652	
7003	0	32704	
7004	0	32714	
7005	0	32649	
7006	0	32648	
7007	0	32796	
7008	0	32748	
7009	0	32824	
7010	0	32916	
7011	0	33004	
7012	0	32941	
7013	0	32948	
7014	0	33088	
7015	0	33284	
7016	0	32980	
7017	0	32780	
7018	0	32752	
7019	0	32708	
7020	0	32660	
7021	0	32856	
7022	0	32716	
7023	0	32660	
7024	0	32652	
7025	0	32556	
7026	0	32704	
7027	0	32768	
7028	0	32740	
7029	0	32576	
7030	0	32744	
7031	0	32680	
7032	0	32816	
7033	0	32984	
7034	0	33100	
7035	0	32872	
7036	0	33008	
7037	0	33044	
7038	0	32668	
7039	0	32592	
7040	0	32592	
7041	0	32664	
7042	0	32534	
7043	0	32501	
7044	0	32640	
7045	0	32688	
7046	0	32732	
7047	0	32764	
7048	0	32824	
7049	0	32932	
7050	0	32896	
7051	0	32876	
7052	0	32869	
7053	0	32826	
7054	0	32692	
7055	0	32485	
7056	0	32592	
7057	0	32772	
7058	0	32832	
7059	0	32884	
7060	0	33183	
7061	0	33112	
7062	0	33000	
7063	0	32900	
7064	0	32864	
7065	0	32752	
7066	0	32632	
7067	0	32768	
7068	0	32601	
7069	0	32248	
7070	0	31708	
7071	0	31584	
7072	0	31816	
7073	0	32296	
7074	0	33040	
7075	0	33564	
7076	0	33920	
7077	0	34028	
7078	0	33788	
7079	0	33420	
7080	0	33380	
7081	0	32980	
7082	0	32876	
7083	0	32741	
7084	0	32662	
7085	0	32556	
7086	0	32540	
7087	0	32489	
7088	0	32525	
7089	0	32488	
7090	0	32516	
7091	0	32572	
7092	0	32580	
7093	0	32452	
7094	0	32548	
7095	0	32724	
7096	0	32824	
7097	0	32792	
7098	0	32896	
7099	0	32832	
7100	0	32696	
7101	0	32612	
7102	0	32508	
7103	0	32720	
7104	0	32780	
7105	0	32764	
7106	0	32976	
7107	0	33204	
7108	0	33084	
7109	0	33188	
7110	0	32812	
7111	0	32580	
7112	0	32644	
7113	0	32596	
7114	0	32640	
7115	0	32732	
7116	0	32684	
7117	0	32892	
7118	0	32724	
7119	0	32588	
7120	0	32504	
7121	0	32596	
7122	0	32636	
7123	0	32680	
7124	0	32816	
7125	0	32858	
7126	0	32890	
7127	0	32904	
7128	0	32992	
7129	0	32896	
7130	0	32838	
7131	0	32980	
7132	0	32924	
7133	0	32660	
7134	0	32804	
7135	0	32761	
7136	0	32736	
7137	0	32655	
7138	0	32654	
7139	0	32656	
7140	0	32804	
7141	0	32736	
7142	0	32668	
7143	0	32760	
7144	0	32672	
7145	0	32492	
7146	0	32524	
7147	0	32712	
7148	0	32676	
7149	0	32744	
7150	0	32998	
7151	0	33044	
7152	0	32940	
7153	0	33076	
7154	0	32918	
7155	0	32888	
7156	0	32920	
7157	0	33164	
7158	0	33004	
7159	0	32865	
7160	0	32788	
7161	0	32812	
7162	0	32438	
7163	0	32428	
7164	0	32500	
7165	0	32608	
7166	0	33024	
7167	0	33172	
7168	0	33064	
7169	0	32972	
7170	0	32820	
7171	0	32716	
7172	0	32636	
7173	0	32632	
7174	0	32644	
7175	0	32676	
7176	0	32680	
7177	0	32718	
7178	0	32726	
7179	0	32800	
7180	0	32828	
7181	0	32872	
7182	0	32968	
7183	0	33008	
7184	0	32908	
7185	0	32864	
7186	0	32792	
7187	0	32684	
7188	0	32564	
7189	0	32476	
7190	0	32480	
7191	0	32568	
7192	0	32493	
7193	0	32562	
7194	0	32562	
7195	0	32924	
7196	0	33064	
7197	0	33256	
7198	0	33196	
7199	0	33140	
7200	0	33005	
7201	0	32898	
7202	0	32716	
7203	0	32636	
7204	0	32716	
7205	0	32768	
7206	0	32778	
7207	0	32792	
7208	0	32984	
7209	0	32900	
7210	0	32900	
7211	0	33064	
7212	0	32752	
7213	0	32560	
7214	0	32524	
7215	0	32576	
7216	0	32572	
7217	0	32620	
7218	0	32584	
7219	0	32668	
7220	0	32704	
7221	0	32660	
7222	0	32732	
7223	0	32804	
7224	0	32824	
7225	0	32897	
7226	0	32868	
7227	0	32860	
7228	0	32884	
7229	0	32888	
7230	0	32872	
7231	0	32750	
7232	0	32660	
7233	0	32768	
7234	0	32728	
7235	0	32726	
7236	0	32685	
7237	0	32748	
7238	0	32492	
7239	0	32340	
7240	0	32396	
7241	0	32518	
7242	0	32644	
7243	0	32908	
7244	0	33106	
7245	0	33288	
7246	0	33444	
7247	0	33524	
7248	0	33624	
7249	0	33036	
7250	0	32504	
7251	0	32468	
7252	0	32572	
7253	0	32468	
7254	0	32468	
7255	0	32532	
7256	0	32372	
7257	0	32316	
7258	0	32484	
7259	0	32708	
7260	0	32928	
7261	0	32868	
7262	0	32976	
7263	0	33124	
7264	0	33184	
7265	0	33096	
7266	0	33097	
7267	0	32968	
7268	0	32848	
7269	0	32508	
7270	0	32200	
7271	0	32278	
7272	0	32364	
7273	0	32532	
7274	0	32748	
7275	0	33076	
7276	0	33272	
7277	0	33116	
7278	0	33180	
7279	0	33160	
7280	0	32808	
7281	0	32664	
7282	0	32724	
7283	0	32928	
7284	0	32788	
7285	0	32813	
7286	0	32784	
7287	0	32538	
7288	0	32612	
7289	0	32592	
7290	0	32556	
7291	0	32520	
7292	0	32553	
7293	0	32620	
7294	0	32684	
7295	0	32736	
7296	0	32805	
7297	0	32817	
7298	0	32944	
7299	0	33024	
7300	0	33172	
7301	0	32920	
7302	0	32820	
7303	0	32652	
7304	0	32560	
7305	0	32592	
7306	0	32720	
7307	0	32780	
7308	0	32872	
7309	0	32836	
7310	0	32777	
7311	0	32628	
7312	0	32680	
7313	0	32720	
7314	0	32596	
7315	0	32440	
7316	0	32489	
7317	0	32584	
7318	0	32677	
7319	0	32708	
7320	0	32856	
7321	0	33142	
7322	0	33504	
7323	0	33592	
7324	0	33672	
7325	0	33218	
7326	0	32776	
7327	0	32644	
7328	0	32716	
7329	0	32500	
7330	0	32444	
7331	0	32428	
7332	0	32656	
7333	0	32750	
7334	0	32804	
7335	0	32776	
7336	0	32709	
7337	0	32805	
7338	0	32804	
7339	0	32684	
7340	0	32720	
7341	0	32732	
7342	0	32560	
7343	0	32488	
7344	0	32549	
7345	0	32608	
7346	0	32620	
7347	0	32732	
7348	0	32876	
7349	0	33036	
7350	0	33140	
7351	0	33252	
7352	0	33324	
7353	0	33230	
7354	0	33036	
7355	0	32732	
7356	0	32476	
7357	0	32452	
7358	0	32552	
7359	0	32508	
7360	0	32180	
7361	0	32040	
7362	0	32276	
7363	0	32568	
7364	0	32924	
7365	0	33252	
7366	0	33509	
7367	0	33722	
7368	0	33512	
7369	0	33168	
7370	0	33248	
7371	0	32864	
7372	0	32508	
7373	0	32421	
7374	0	32488	
7375	0	32580	
7376	0	32528	
7377	0	32432	
7378	0	32484	
7379	0	32584	
7380	0	32676	
7381	0	32833	
7382	0	32774	
7383	0	32664	
7384	0	32772	
7385	0	32849	
7386	0	32992	
7387	0	32798	
7388	0	32796	
7389	0	32692	
7390	0	32648	
7391	0	32708	
7392	0	32772	
7393	0	32656	
7394	0	32704	
7395	0	32736	
7396	0	32776	
7397	0	32888	
7398	0	32936	
7399	0	32885	
7400	0	32864	
7401	0	32880	
7402	0	32800	
7403	0	32828	
7404	0	32836	
7405	0	32584	
7406	0	32392	
7407	0	32236	
7408	0	32336	
7409	0	32700	
7410	0	32904	
7411	0	33089	
7412	0	33165	
7413	0	33181	
7414	0	33316	
7415	0	33084	
7416	0	32832	
7417	0	32620	
7418	0	32564	
7419	0	32716	
7420	0	32648	
7421	0	32572	
7422	0	32836	
7423	0	32736	
7424	0	32792	
7425	0	32784	
7426	0	32764	
7427	0	32700	
7428	0	32728	
7429	0	32672	
7430	0	32748	
7431	0	32696	
7432	0	32672	
7433	0	32696	
7434	0	32774	
7435	0	32752	
7436	0	32840	
7437	0	33004	
7438	0	32788	
7439	0	32756	
7440	0	32876	
7441	0	32817	
7442	0	32788	
7443	0	32692	
7444	0	32776	
7445	0	32720	
7446	0	32692	
7447	0	32721	
7448	0	32784	
7449	0	32732	
7450	0	32772	
7451	0	32816	
7452	0	32772	
7453	0	32576	
7454	0	32572	
7455	0	32580	
7456	0	32800	
7457	0	32668	
7458	0	32728	
7459	0	32960	
7460	0	33124	
7461	0	33030	
7462	0	33222	
7463	0	33044	
7464	0	32816	
7465	0	32769	
7466	0	32680	
7467	0	32832	
7468	0	32980	
7469	0	32868	
7470	0	32796	
7471	0	32660	
7472	0	32544	
7473	0	32636	
7474	0	32709	
7475	0	32745	
7476	0	32692	
7477	0	32876	
7478	0	32744	
7479	0	32584	
7480	0	32604	
7481	0	32632	
7482	0	32692	
7483	0	32876	
7484	0	32992	
7485	0	33068	
7486	0	33044	
7487	0	33072	
7488	0	33008	
7489	0	32816	
7490	0	32464	
7491	0	31996	
7492	0	32062	
7493	0	32316	
7494	0	32472	
7495	0	32764	
7496	0	33158	
7497	0	33336	
7498	0	33340	
7499	0	33260	
7500	0	32996	
7501	0	32838	
7502	0	32748	
7503	0	32924	
7504	0	33076	
7505	0	32900	
7506	0	32932	
7507	0	32964	
7508	0	32834	
7509	0	32708	
7510	0	32777	
7511	0	32584	
7512	0	32592	
7513	0	32576	
7514	0	32536	
7515	0	32640	
7516	0	32519	
7517	0	32538	
7518	0	32560	
7519	0	32687	
7520	0	32732	
7521	0	32648	
7522	0	32860	
7523	0	32972	
7524	0	32912	
7525	0	32908	
7526	0	32869	
7527	0	32928	
7528	0	32868	
7529	0	32764	
7530	0	32682	
7531	0	32628	
7532	0	32704	
7533	0	32616	
7534	0	32598	
7535	0	32588	
7536	0	32668	
7537	0	32692	
7538	0	32712	
7539	0	32748	
7540	0	32796	
7541	0	32816	
7542	0	33000	
7543	0	32980	
7544	0	32928	
7545	0	32888	
7546	0	32780	
7547	0	32744	
7548	0	32760	
7549	0	32756	
7550	0	32780	
7551	0	32588	
7552	0	32636	
7553	0	32660	
7554	0	32736	
7555	0	32824	
7556	0	32880	
7557	0	32949	
7558	0	33036	
7559	0	33036	
7560	0	32652	
7561	0	32508	
7562	0	32576	
7563	0	32660	
7564	0	32824	
7565	0	32893	
7566	0	32884	
7567	0	32936	
7568	0	33006	
7569	0	32960	
7570	0	32696	
7571	0	32540	
7572	0	32433	
7573	0	32360	
7574	0	32521	
7575	0	32760	
7576	0	32980	
7577	0	33025	
7578	0	33132	
7579	0	33292	
7580	0	33052	
7581	0	32848	
7582	0	32716	
7583	0	32816	
7584	0	32868	
7585	0	32764	
7586	0	32628	
7587	0	32401	
7588	0	32224	
7589	0	32204	
7590	0	32348	
7591	0	32608	
7592	0	32801	
7593	0	32856	
7594	0	32880	
7595	0	33038	
7596	0	33048	
7597	0	33080	
7598	0	33016	
7599	0	32976	
7600	0	32932	
7601	0	32894	
7602	0	32740	
7603	0	32564	
7604	0	32720	
7605	0	33033	
7606	0	32956	
7607	0	32948	
7608	0	32880	
7609	0	32772	
7610	0	32684	
7611	0	32558	
7612	0	32516	
7613	0	32700	
7614	0	32732	
7615	0	32654	
7616	0	32649	
7617	0	32724	
7618	0	32824	
7619	0	32886	
7620	0	32945	
7621	0	32992	
7622	0	32824	
7623	0	32740	
7624	0	32800	
7625	0	32746	
7626	0	32632	
7627	0	32736	
7628	0	32788	
7629	0	32745	
7630	0	32748	
7631	0	32720	
7632	0	32762	
7633	0	32740	
7634	0	32628	
7635	0	32624	
7636	0	32668	
7637	0	32788	
7638	0	32832	
7639	0	32868	
7640	0	32740	
7641	0	32890	
7642	0	32900	
7643	0	32852	
7644	0	32804	
7645	0	32785	
7646	0	32781	
7647	0	32838	
7648	0	32816	
7649	0	32728	
7650	0	32704	
7651	0	32708	
7652	0	32720	
7653	0	32748	
7654	0	32820	
7655	0	32884	
7656	0	32836	
7657	0	32852	
7658	0	32740	
7659	0	32608	
7660	0	32764	
7661	0	32844	
7662	0	32879	
7663	0	32772	
7664	0	32824	
7665	0	32720	
7666	0	32780	
7667	0	32776	
7668	0	32784	
7669	0	32792	
7670	0	32796	
7671	0	32820	
7672	0	32612	
7673	0	32596	
7674	0	32680	
7675	0	32732	
7676	0	32832	
7677	0	32956	
7678	0	32876	
7679	0	32822	
7680	0	32764	
7681	0	32772	
7682	0	32748	
7683	0	32668	
7684	0	32772	
7685	0	32932	
7686	0	33020	
7687	0	33056	
7688	0	32933	
7689	0	32632	
7690	0	32504	
7691	0	32522	
7692	0	32464	
7693	0	32300	
7694	0	32416	
7695	0	32608	
7696	0	32852	
7697	0	33132	
7698	0	33152	
7699	0	33456	
7700	0	33358	
7701	0	33253	
7702	0	32912	
7703	0	32588	
7704	0	32500	
7705	0	32620	
7706	0	32756	
7707	0	32792	
7708	0	32790	
7709	0	32732	
7710	0	32212	
7711	0	32192	
7712	0	32392	
7713	0	32604	
7714	0	32878	
7715	0	33090	
7716	0	33232	
7717	0	33317	
7718	0	33256	
7719	0	32988	
7720	0	33068	
7721	0	32852	
7722	0	32724	
7723	0	32612	
7724	0	32464	
7725	0	32568	
7726	0	32620	
7727	0	32780	
7728	0	32856	
7729	0	32853	
7730	0	32788	
7731	0	32808	
7732	0	32832	
7733	0	32560	
7734	0	32532	
7735	0	32708	
7736	0	32848	
7737	0	32676	
7738	0	32644	
7739	0	32748	
7740	0	32728	
7741	0	32825	
7742	0	32785	
7743	0	32846	
7744	0	32800	
7745	0	32844	
7746	0	32824	
7747	0	32820	
7748	0	32788	
7749	0	32782	
7750	0	32744	
7751	0	32796	
7752	0	32788	
7753	0	32688	
7754	0	32524	
7755	0	32328	
7756	0	32464	
7757	0	32700	
7758	0	32824	
7759	0	32960	
7760	0	33108	
7761	0	33136	
7762	0	33142	
7763	0	32996	
7764	0	33044	
7765	0	32740	
7766	0	32636	
7767	0	32656	
7768	0	32740	
7769	0	32892	
7770	0	32988	
7771	0	33032	
7772	0	32988	
7773	0	32712	
7774	0	32508	
7775	0	32528	
7776	0	32580	
7777	0	32668	
7778	0	32708	
7779	0	32712	
7780	0	32568	
7781	0	32492	
7782	0	32492	
7783	0	32636	
7784	0	32869	
7785	0	33054	
7786	0	33140	
7787	0	33152	
7788	0	32992	
7789	0	33004	
7790	0	32782	
7791	0	32733	
7792	0	32692	
7793	0	32740	
7794	0	32740	
7795	0	32704	
7796	0	32580	
7797	0	32632	
7798	0	32784	
7799	0	32772	
7800	0	32780	
7801	0	32676	
7802	0	32652	
7803	0	32764	
7804	0	32812	
7805	0	32756	
7806	0	32880	
7807	0	32916	
7808	0	32816	
7809	0	32728	
7810	0	32812	
7811	0	32784	
7812	0	32580	
7813	0	32468	
7814	0	32508	
7815	0	32526	
7816	0	32712	
7817	0	33044	
7818	0	33172	
7819	0	33300	
7820	0	33164	
7821	0	33200	
7822	0	33156	
7823	0	32929	
7824	0	32948	
7825	0	32885	
7826	0	32808	
7827	0	32605	
7828	0	32644	
7829	0	32732	
7830	0	32644	
7831	0	32680	
7832	0	32621	
7833	0	32476	
7834	0	32384	
7835	0	32420	
7836	0	32556	
7837	0	32696	
7838	0	32784	
7839	0	32960	
7840	0	32952	
7841	0	32828	
7842	0	32868	
7843	0	32740	
7844	0	32636	
7845	0	32668	
7846	0	32788	
7847	0	32836	
7848	0	32900	
7849	0	32853	
7850	0	32884	
7851	0	32816	
7852	0	32824	
7853	0	32815	
7854	0	32826	
7855	0	32620	
7856	0	32508	
7857	0	32504	
7858	0	32672	
7859	0	32700	
7860	0	32700	
7861	0	32676	
7862	0	32753	
7863	0	32836	
7864	0	32980	
7865	0	33120	
7866	0	32944	
7867	0	32924	
7868	0	33032	
7869	0	32884	
7870	0	32992	
7871	0	32852	
7872	0	32804	
7873	0	32477	
7874	0	32456	
7875	0	32472	
7876	0	32516	
7877	0	32672	
7878	0	32896	
7879	0	33044	
7880	0	32924	
7881	0	32980	
7882	0	32860	
7883	0	32784	
7884	0	32688	
7885	0	32844	
7886	0	32756	
7887	0	32742	
7888	0	32700	
7889	0	32680	
7890	0	32708	
7891	0	32712	
7892	0	32720	
7893	0	32628	
7894	0	32740	
7895	0	32728	
7896	0	32744	
7897	0	32728	
7898	0	32736	
7899	0	32696	
7900	0	32677	
7901	0	32692	
7902	0	32706	
7903	0	32748	
7904	0	32821	
7905	0	32820	
7906	0	32920	
7907	0	32817	
7908	0	32776	
7909	0	32854	
7910	0	33026	
7911	0	33004	
7912	0	32980	
7913	0	32812	
7914	0	32812	
7915	0	32752	
7916	0	32652	
7917	0	32688	
7918	0	32672	
7919	0	32694	
7920	0	32716	
7921	0	32764	
7922	0	32820	
7923	0	32740	
7924	0	32768	
7925	0	32832	
7926	0	32928	
7927	0	32878	
7928	0	32880	
7929	0	32748	
7930	0	32620	
7931	0	32718	
7932	0	32726	
7933	0	32720	
7934	0	32670	
7935	0	32745	
7936	0	32684	
7937	0	32808	
7938	0	32745	
7939	0	32772	
7940	0	32844	
7941	0	32768	
7942	0	32756	
7943	0	32840	
7944	0	32905	
7945	0	32896	
7946	0	32944	
7947	0	33132	
7948	0	33084	
7949	0	32880	
7950	0	32660	
7951	0	32584	
7952	0	32612	
7953	0	32524	
7954	0	32460	
7955	0	32472	
7956	0	32624	
7957	0	32700	
7958	0	32817	
7959	0	32968	
7960	0	33244	
7961	0	32964	
7962	0	32940	
7963	0	32924	
7964	0	32976	
7965	0	32840	
7966	0	32784	
7967	0	32804	
7968	0	32744	
7969	0	32712	
7970	0	32724	
7971	0	32500	
7972	0	32044	
7973	0	32088	
7974	0	32260	
7975	0	32544	
7976	0	32993	
7977	0	33280	
7978	0	33520	
7979	0	33404	
7980	0	33345	
7981	0	33357	
7982	0	32908	
7983	0	32544	
7984	0	32636	
7985	0	32685	
7986	0	32772	
7987	0	32709	
7988	0	32696	
7989	0	32692	
7990	0	32598	
7991	0	32568	
7992	0	32676	
7993	0	32604	
7994	0	32556	
7995	0	32645	
7996	0	32680	
7997	0	32656	
7998	0	32704	
7999	0	32756	
8000	0	32964	
8001	0	32964	
8002	0	32836	
8003	0	32824	
8004	0	32866	
8005	0	32700	
8006	0	32764	
8007	0	32964	
8008	0	32804	
8009	0	32816	
8010	0	32800	
8011	0	32744	
8012	0	32640	
8013	0	32552	
8014	0	32656	
8015	0	32748	
8016	0	32788	
8017	0	32788	
8018	0	32864	
8019	0	32886	
8020	0	32852	
8021	0	32908	
8022	0	33068	
8023	0	32829	
8024	0	32724	
8025	0	32728	
8026	0	32818	
8027	0	32790	
8028	0	32640	
8029	0	32600	
8030	0	32668	
8031	0	32676	
8032	0	32708	
8033	0	32750	
8034	0	32656	
8035	0	32744	
8036	0	32844	
8037	0	32768	
8038	0	32788	
8039	0	32936	
8040	0	32772	
8041	0	32864	
8042	0	32800	
8043	0	32860	
8044	0	32872	
8045	0	32984	
8046	0	33068	
8047	0	33000	
8048	0	32848	
8049	0	32660	
8050	0	32748	
8051	0	32644	
8052	0	32633	
8053	0	32492	
8054	0	32458	
8055	0	32548	
8056	0	32560	
8057	0	32628	
8058	0	32813	
8059	0	32872	
8060	0	33012	
8061	0	33072	
8062	0	33080	
8063	0	32896	
8064	0	32764	
8065	0	32740	
8066	0	33008	
8067	0	33012	
8068	0	32720	
8069	0	32732	
8070	0	32732	
8071	0	32620	
8072	0	32612	
8073	0	32556	
8074	0	32424	
8075	0	32152	
8076	0	32088	
8077	0	32356	
8078	0	32676	
8079	0	33032	
8080	0	33480	
8081	0	33500	
8082	0	33637	
8083	0	33720	
8084	0	33572	
8085	0	33168	
8086	0	32832	
8087	0	32612	
8088	0	32540	
8089	0	32460	
8090	0	32492	
8091	0	32484	
8092	0	32556	
8093	0	32510	
8094	0	32509	
8095	0	32568	
8096	0	32608	
8097	0	32673	
8098	0	32770	
8099	0	32896	
8100	0	32836	
8101	0	32796	
8102	0	32741	
8103	0	32640	
8104	0	32708	
8105	0	32814	
8106	0	32900	
8107	0	32900	
8108	0	32836	
8109	0	32712	
8110	0	32656	
8111	0	32756	
8112	0	32760	
8113	0	32696	
8114	0	32704	
8115	0	32760	
8116	0	32804	
8117	0	32844	
8118	0	32764	
8119	0	32774	
8120	0	32856	
8121	0	32660	
8122	0	32706	
8123	0	32664	
8124	0	32636	
8125	0	32686	
8126	0	32800	
8127	0	32900	
8128	0	32916	
8129	0	32916	
8130	0	32902	
8131	0	33008	
8132	0	33072	
8133	0	32768	
8134	0	32629	
8135	0	32728	
8136	0	32828	
8137	0	32884	
8138	0	32904	
8139	0	32660	
8140	0	32616	
8141	0	32676	
8142	0	32912	
8143	0	33073	
8144	0	32916	
8145	0	32676	
8146	0	32700	
8147	0	32708	
8148	0	32776	
8149	0	32828	
8150	0	32728	
8151	0	32852	
8152	0	32766	
8153	0	32700	
8154	0	32584	
8155	0	32488	
8156	0	32428	
8157	0	32520	
8158	0	32652	
8159	0	32708	
8160	0	32937	
8161	0	33108	
8162	0	32780	
8163	0	32792	
8164	0	32848	
8165	0	32684	
8166	0	32900	
8167	0	32992	
8168	0	33036	
8169	0	33016	
8170	0	33092	
8171	0	32980	
8172	0	32924	
8173	0	32988	
8174	0	32992	
8175	0	32776	
8176	0	32712	
8177	0	32740	
8178	0	32645	
8179	0	32536	
8180	0	32517	
8181	0	32576	
8182	0	32624	
8183	0	32668	
8184	0	32740	
8185	0	32732	
8186	0	32758	
8187	0	32728	
8188	0	32744	
8189	0	32744	
8190	0	32716	
8191	0	32688	
8192	0	32684	
8193	0	32736	
8194	0	32692	
8195	0	32734	
8196	0	32776	
8197	0	32409	
8198	0	32388	
8199	0	32556	
8200	0	32452	
8201	0	32772	
8202	0	33076	
8203	0	33294	
8204	0	33423	
8205	0	33344	
8206	0	33364	
8207	0	33188	
8208	0	32820	
8209	0	32732	
8210	0	32753	
8211	0	32704	
8212	0	32492	
8213	0	32512	
8214	0	32561	
8215	0	32564	
8216	0	32600	
8217	0	32712	
8218	0	32692	
8219	0	32748	
8220	0	32800	
8221	0	32812	
8222	0	32692	
8223	0	32766	
8224	0	32856	
8225	0	32761	
8226	0	32748	
8227	0	32672	
8228	0	32688	
8229	0	32716	
8230	0	32725	
8231	0	32760	
8232	0	32678	
8233	0	32780	
8234	0	32917	
8235	0	33016	
8236	0	32808	
8237	0	32670	
8238	0	32712	
8239	0	32756	
8240	0	32634	
8241	0	32696	
8242	0	32601	
8243	0	32612	
8244	0	32541	
8245	0	32752	
8246	0	32885	
8247	0	33036	
8248	0	33052	
8249	0	32900	
8250	0	33028	
8251	0	33048	
8252	0	32974	
8253	0	32932	
8254	0	32788	
8255	0	32913	
8256	0	32996	
8257	0	32928	
8258	0	32766	
8259	0	32561	
8260	0	32584	
8261	0	32668	
8262	0	32733	
8263	0	32724	
8264	0	32704	
8265	0	32680	
8266	0	32688	
8267	0	32662	
8268	0	32612	
8269	0	32812	
8270	0	32861	
8271	0	32824	
8272	0	32848	
8273	0	32740	
8274	0	32716	
8275	0	32716	
8276	0	32740	
8277	0	32628	
8278	0	32662	
8279	0	32620	
8280	0	32596	
8281	0	32645	
8282	0	32722	
8283	0	32788	
8284	0	32776	
8285	0	32776	
8286	0	32884	
8287	0	32948	
8288	0	32910	
8289	0	33026	
8290	0	32876	
8291	0	32748	
8292	0	32629	
8293	0	32805	
8294	0	32656	
8295	0	32764	
8296	0	32853	
8297	0	32857	
8298	0	32896	
8299	0	32892	
8300	0	32821	
8301	0	32896	
8302	0	32896	
8303	0	32908	
8304	0	32852	
8305	0	32684	
8306	0	32704	
8307	0	32612	
8308	0	32684	
8309	0	32720	
8310	0	32656	
8311	0	32770	
8312	0	32644	
8313	0	32616	
8314	0	32704	
8315	0	32709	
8316	0	32688	
8317	0	32688	
8318	0	32584	
8319	0	32672	
8320	0	32764	
8321	0	32749	
8322	0	32764	
8323	0	32844	
8324	0	32936	
8325	0	32980	
8326	0	33160	
8327	0	33192	
8328	0	32887	
8329	0	32769	
8330	0	32664	
8331	0	32760	
8332	0	32664	
8333	0	32621	
8334	0	32649	
8335	0	32608	
8336	0	32596	
8337	0	32556	
8338	0	32472	
8339	0	32574	
8340	0	32710	
8341	0	32860	
8342	0	33072	
8343	0	33062	
8344	0	33056	
8345	0	33028	
8346	0	32964	
8347	0	32460	
8348	0	32364	
8349	0	32680	
8350	0	32992	
8351	0	33007	
8352	0	33016	
8353	0	33056	
8354	0	32980	
8355	0	32876	
8356	0	32800	
8357	0	32772	
8358	0	32588	
8359	0	32612	
8360	0	32688	
8361	0	32764	
8362	0	32760	
8363	0	32800	
8364	0	32524	
8365	0	32452	
8366	0	32556	
8367	0	32576	
8368	0	32700	
8369	0	32808	
8370	0	32932	
8371	0	32964	
8372	0	33004	
8373	0	33192	
8374	0	32992	
8375	0	32860	
8376	0	32765	
8377	0	32724	
8378	0	32636	
8379	0	32628	
8380	0	32772	
8381	0	32832	
8382	0	32832	
8383	0	32820	
8384	0	32697	
8385	0	32704	
8386	0	32684	
8387	0	32760	
8388	0	32652	
8389	0	32668	
8390	0	32768	
8391	0	32772	
8392	0	32692	
8393	0	32828	
8394	0	32756	
8395	0	32808	
8396	0	32812	
8397	0	32776	
8398	0	32768	
8399	0	32716	
8400	0	32620	
8401	0	32660	
8402	0	32716	
8403	0	32828	
8404	0	32928	
8405	0	32900	
8406	0	32932	
8407	0	32968	
8408	0	32800	
8409	0	32720	
8410	0	32624	
8411	0	32494	
8412	0	32512	
8413	0	32504	
8414	0	32540	
8415	0	32684	
8416	0	32760	
8417	0	32964	
8418	0	33056	
8419	0	33148	
8420	0	33338	
8421	0	33127	
8422	0	33072	
8423	0	32992	
8424	0	32820	
8425	0	32688	
8426	0	32532	
8427	0	32384	
8428	0	32421	
8429	0	32450	
8430	0	32374	
8431	0	32505	
8432	0	32636	
8433	0	32704	
8434	0	32864	
8435	0	32884	
8436	0	33104	
8437	0	33136	
8438	0	33264	
8439	0	33264	
8440	0	33020	
8441	0	32758	
8442	0	32704	
8443	0	32678	
8444	0	32669	
8445	0	32660	
8446	0	32633	
8447	0	32692	
8448	0	32664	
8449	0	32629	
8450	0	32756	
8451	0	32805	
8452	0	32769	
8453	0	32892	
8454	0	32740	
8455	0	32700	
8456	0	32644	
8457	0	32785	
8458	0	32744	
8459	0	32804	
8460	0	32848	
8461	0	32917	
8462	0	32922	
8463	0	32820	
8464	0	32776	
8465	0	32816	
8466	0	32696	
8467	0	32580	
8468	0	32500	
8469	0	32589	
8470	0	32648	
8471	0	32788	
8472	0	32792	
8473	0	32868	
8474	0	33052	
8475	0	32916	
8476	0	32928	
8477	0	32956	
8478	0	32736	
8479	0	32712	
8480	0	32720	
8481	0	32732	
8482	0	32736	
8483	0	32764	
8484	0	32748	
8485	0	32748	
8486	0	32804	
8487	0	32862	
8488	0	32840	
8489	0	32900	
8490	0	32848	
8491	0	32840	
8492	0	32792	
8493	0	32612	
8494	0	32576	
8495	0	32552	
8496	0	32608	
8497	0	32645	
8498	0	32788	
8499	0	32860	
8500	0	33008	
8501	0	32956	
8502	0	33000	
8503	0	32988	
8504	0	32842	
8505	0	32710	
8506	0	32800	
8507	0	32748	
8508	0	32638	
8509	0	32728	
8510	0	32444	
8511	0	32364	
8512	0	32628	
8513	0	32700	
8514	0	32960	
8515	0	33096	
8516	0	33048	
8517	0	33116	
8518	0	33068	
8519	0	32756	
8520	0	32740	
8521	0	32564	
8522	0	32612	
8523	0	32764	
8524	0	32952	
8525	0	32940	
8526	0	32948	
8527	0	33112	
8528	0	32872	
8529	0	32720	
8530	0	32456	
8531	0	32428	
8532	0	32516	
8533	0	32556	
8534	0	32652	
8535	0	32608	
8536	0	32644	
8537	0	32664	
8538	0	32868	
8539	0	33013	
8540	0	33004	
8541	0	32848	
8542	0	32784	
8543	0	32840	
8544	0	32836	
8545	0	32808	
8546	0	32840	
8547	0	32940	
8548	0	32993	
8549	0	32860	
8550	0	32784	
8551	0	32805	
8552	0	32604	
8553	0	32668	
8554	0	32680	
8555	0	32680	
8556	0	32780	
8557	0	32801	
8558	0	32684	
8559	0	32672	
8560	0	32804	
8561	0	32748	
8562	0	32725	
8563	0	32748	
8564	0	32792	
8565	0	32628	
8566	0	32668	
8567	0	32700	
8568	0	32760	
8569	0	32684	
8570	0	32652	
8571	0	32734	
8572	0	32828	
8573	0	32840	
8574	0	32952	
8575	0	32900	
8576	0	32872	
8577	0	32736	
8578	0	32832	
8579	0	32887	
8580	0	32992	
8581	0	33016	
8582	0	33092	
8583	0	33032	
8584	0	32604	
8585	0	32456	
8586	0	32580	
8587	0	32624	
8588	0	32725	
8589	0	32820	
8590	0	32992	
8591	0	32940	
8592	0	32848	
8593	0	32864	
8594	0	32724	
8595	0	32664	
8596	0	32624	
8597	0	32636	
8598	0	32732	
8599	0	32680	
8600	0	32853	
8601	0	32789	
8602	0	32732	
8603	0	32744	
8604	0	32840	
8605	0	32828	
8606	0	32856	
8607	0	32848	
8608	0	32744	
8609	0	32809	
8610	0	32768	
8611	0	32732	
8612	0	32696	
