# OpenSignals Text File Format. Version 1
# {"00:07:80:4D:2E:9E": {"sensor": ["CUSTOM/0.5/1.0/V"], "device name": "00:07:80:4D:2E:9E", "column": ["nSeq", "DI", "CH1"], "sync interval": 2, "time": "17:16:33.642", "comments": "", "device connection": "BTH00:07:80:4D:2E:9E", "channels": [1], "keywords": "", "mode": 0, "digital IO": [0, 1], "firmware version": 774, "device": "biosignalsplux", "position": 0, "sampling rate": 1000, "label": ["CH1"], "resolution": [16], "date": "2020-7-11", "special": [{}]}}
# EndOfHeader
0	0	32748	
1	0	32772	
2	0	32716	
3	0	32776	
4	0	32768	
5	0	32756	
6	0	32780	
7	0	32748	
8	0	32792	
9	0	32728	
10	0	32764	
11	0	32801	
12	0	32841	
13	0	32728	
14	0	32768	
15	0	32804	
16	0	32813	
17	0	32816	
18	0	32780	
19	0	32772	
20	0	32780	
21	0	32740	
22	0	32704	
23	0	32788	
24	0	32800	
25	0	32692	
26	0	32776	
27	0	32784	
28	0	32680	
29	0	32734	
30	0	32822	
31	0	32772	
32	0	32836	
33	0	32844	
34	0	32760	
35	0	32792	
36	0	32848	
37	0	32753	
38	0	32768	
39	0	32696	
40	0	32760	
41	0	32796	
42	0	32840	
43	0	32816	
44	0	32748	
45	0	32768	
46	0	32708	
47	0	32828	
48	0	32724	
49	0	32744	
50	0	32760	
51	0	32808	
52	0	32836	
53	0	32804	
54	0	32816	
55	0	32804	
56	0	32724	
57	0	32832	
58	0	32778	
59	0	32788	
60	0	32724	
61	0	32772	
62	0	32756	
63	0	32784	
64	0	32812	
65	0	32788	
66	0	32748	
67	0	32798	
68	0	32840	
69	0	32780	
70	0	32768	
71	0	32776	
72	0	32789	
73	0	32776	
74	0	32736	
75	0	32784	
76	0	32764	
77	0	32772	
78	0	32781	
79	0	32756	
80	0	32752	
81	0	32839	
82	0	32847	
83	0	32856	
84	0	32780	
85	0	32804	
86	0	32816	
87	0	32792	
88	0	32776	
89	0	32724	
90	0	32805	
91	0	32748	
92	0	32740	
93	0	32740	
94	0	32748	
95	0	32712	
96	0	32772	
97	0	32828	
98	0	32773	
99	0	32717	
100	0	32856	
101	0	32852	
102	0	32740	
103	0	32788	
104	0	32812	
105	0	32800	
106	0	32780	
107	0	32804	
108	0	32804	
109	0	32824	
110	0	32748	
111	0	32752	
112	0	32760	
113	0	32808	
114	0	32740	
115	0	32788	
116	0	32772	
117	0	32792	
118	0	32892	
119	0	32808	
120	0	32824	
121	0	32808	
122	0	32800	
123	0	32800	
124	0	32816	
125	0	32800	
126	0	32696	
127	0	32740	
128	0	32732	
129	0	32708	
130	0	32740	
131	0	32773	
132	0	32792	
133	0	32752	
134	0	32796	
135	0	32800	
136	0	32844	
137	0	32864	
138	0	32808	
139	0	32808	
140	0	32758	
141	0	32740	
142	0	32808	
143	0	32864	
144	0	32781	
145	0	32852	
146	0	32884	
147	0	32844	
148	0	32865	
149	0	32756	
150	0	32712	
151	0	32780	
152	0	32756	
153	0	32736	
154	0	32706	
155	0	32756	
156	0	32756	
157	0	32740	
158	0	32748	
159	0	32824	
160	0	32684	
161	0	32772	
162	0	32737	
163	0	32746	
164	0	32752	
165	0	32712	
166	0	32740	
167	0	32781	
168	0	32732	
169	0	32732	
170	0	32832	
171	0	32736	
172	0	32804	
173	0	32764	
174	0	32781	
175	0	32800	
176	0	32732	
177	0	32808	
178	0	32804	
179	0	32768	
180	0	32780	
181	0	32774	
182	0	32824	
183	0	32812	
184	0	32864	
185	0	32852	
186	0	32732	
187	0	32768	
188	0	32780	
189	0	32772	
190	0	32792	
191	0	32749	
192	0	32712	
193	0	32828	
194	0	32760	
195	0	32748	
196	0	32832	
197	0	32792	
198	0	32775	
199	0	32832	
200	0	32812	
201	0	32748	
202	0	32832	
203	0	32741	
204	0	32756	
205	0	32820	
206	0	32768	
207	0	32748	
208	0	32712	
209	0	32756	
210	0	32740	
211	0	32805	
212	0	32853	
213	0	32848	
214	0	32788	
215	0	32800	
216	0	32766	
217	0	32753	
218	0	32800	
219	0	32804	
220	0	32758	
221	0	32784	
222	0	32760	
223	0	32796	
224	0	32822	
225	0	32747	
226	0	32692	
227	0	32744	
228	0	32748	
229	0	32876	
230	0	32792	
231	0	32808	
232	0	32824	
233	0	32780	
234	0	32764	
235	0	32804	
236	0	32732	
237	0	32756	
238	0	32800	
239	0	32804	
240	0	32744	
241	0	32812	
242	0	32796	
243	0	32752	
244	0	32700	
245	0	32732	
246	0	32740	
247	0	32784	
248	0	32768	
249	0	32776	
250	0	32846	
251	0	32772	
252	0	32792	
253	0	32824	
254	0	32816	
255	0	32774	
256	0	32802	
257	0	32780	
258	0	32832	
259	0	32805	
260	0	32790	
261	0	32725	
262	0	32732	
263	0	32760	
264	0	32769	
265	0	32716	
266	0	32764	
267	0	32832	
268	0	32780	
269	0	32816	
270	0	32748	
271	0	32756	
272	0	32744	
273	0	32784	
274	0	32750	
275	0	32844	
276	0	32752	
277	0	32748	
278	0	32828	
279	0	32852	
280	0	32796	
281	0	32780	
282	0	32748	
283	0	32776	
284	0	32732	
285	0	32780	
286	0	32736	
287	0	32730	
288	0	32780	
289	0	32704	
290	0	32732	
291	0	32748	
292	0	32792	
293	0	32856	
294	0	32813	
295	0	32752	
296	0	32854	
297	0	32792	
298	0	32824	
299	0	32664	
300	0	32796	
301	0	32820	
302	0	32828	
303	0	32812	
304	0	32812	
305	0	32815	
306	0	32784	
307	0	32836	
308	0	32768	
309	0	32776	
310	0	32780	
311	0	32704	
312	0	32796	
313	0	32762	
314	0	32760	
315	0	32800	
316	0	32772	
317	0	32804	
318	0	32828	
319	0	32824	
320	0	32768	
321	0	32776	
322	0	32804	
323	0	32748	
324	0	32828	
325	0	32801	
326	0	32733	
327	0	32806	
328	0	32710	
329	0	32712	
330	0	32700	
331	0	32680	
332	0	32785	
333	0	32748	
334	0	32756	
335	0	32764	
336	0	32820	
337	0	32712	
338	0	32796	
339	0	32861	
340	0	32812	
341	0	32800	
342	0	32828	
343	0	32768	
344	0	32780	
345	0	32820	
346	0	32764	
347	0	32764	
348	0	32720	
349	0	32692	
350	0	32692	
351	0	32684	
352	0	32724	
353	0	32744	
354	0	32737	
355	0	32780	
356	0	32790	
357	0	32829	
358	0	32865	
359	0	32876	
360	0	32780	
361	0	32789	
362	0	32808	
363	0	32744	
364	0	32836	
365	0	32761	
366	0	32756	
367	0	32758	
368	0	32836	
369	0	32784	
370	0	32756	
371	0	32788	
372	0	32768	
373	0	32788	
374	0	32816	
375	0	32800	
376	0	32816	
377	0	32780	
378	0	32712	
379	0	32736	
380	0	32752	
381	0	32736	
382	0	32836	
383	0	32792	
384	0	32750	
385	0	32714	
386	0	32724	
387	0	32812	
388	0	32748	
389	0	32780	
390	0	32732	
391	0	32696	
392	0	32708	
393	0	32765	
394	0	32824	
395	0	32756	
396	0	32824	
397	0	32924	
398	0	32840	
399	0	32784	
400	0	32776	
401	0	32788	
402	0	32844	
403	0	32812	
404	0	32788	
405	0	32744	
406	0	32804	
407	0	32782	
408	0	32836	
409	0	32760	
410	0	32780	
411	0	32736	
412	0	32836	
413	0	32804	
414	0	32830	
415	0	32808	
416	0	32836	
417	0	32796	
418	0	32728	
419	0	32808	
420	0	32688	
421	0	32756	
422	0	32616	
423	0	32788	
424	0	32758	
425	0	32840	
426	0	32824	
427	0	32752	
428	0	32809	
429	0	32844	
430	0	32737	
431	0	32816	
432	0	32760	
433	0	32776	
434	0	32820	
435	0	32744	
436	0	32765	
437	0	32784	
438	0	32716	
439	0	32744	
440	0	32740	
441	0	32752	
442	0	32684	
443	0	32808	
444	0	32818	
445	0	32800	
446	0	32780	
447	0	32756	
448	0	32752	
449	0	32798	
450	0	32792	
451	0	32844	
452	0	32764	
453	0	32796	
454	0	32820	
455	0	32753	
456	0	32728	
457	0	32751	
458	0	32772	
459	0	32840	
460	0	32836	
461	0	32796	
462	0	32848	
463	0	32856	
464	0	32821	
465	0	32788	
466	0	32756	
467	0	32756	
468	0	32800	
469	0	32772	
470	0	32756	
471	0	32832	
472	0	32769	
473	0	32708	
474	0	32792	
475	0	32800	
476	0	32752	
477	0	32720	
478	0	32780	
479	0	32774	
480	0	32788	
481	0	32800	
482	0	32700	
483	0	32788	
484	0	32812	
485	0	32792	
486	0	32754	
487	0	32824	
488	0	32748	
489	0	32792	
490	0	32797	
491	0	32784	
492	0	32784	
493	0	32820	
494	0	32812	
495	0	32816	
496	0	32788	
497	0	32820	
498	0	32764	
499	0	32776	
500	0	32705	
501	0	32774	
502	0	32780	
503	0	32864	
504	0	32840	
505	0	32744	
506	0	32678	
507	0	32740	
508	0	32781	
509	0	32764	
510	0	32696	
511	0	32756	
512	0	32864	
513	0	32832	
514	0	32820	
515	0	32860	
516	0	32888	
517	0	32816	
518	0	32772	
519	0	32788	
520	0	32702	
521	0	32764	
522	0	32796	
523	0	32816	
524	0	32760	
525	0	32752	
526	0	32776	
527	0	32748	
528	0	32820	
529	0	32752	
530	0	32692	
531	0	32704	
532	0	32836	
533	0	32756	
534	0	32844	
535	0	32804	
536	0	32784	
537	0	32780	
538	0	32816	
539	0	32724	
540	0	32649	
541	0	32712	
542	0	32796	
543	0	32820	
544	0	32776	
545	0	32842	
546	0	32801	
547	0	32844	
548	0	32828	
549	0	32792	
550	0	32752	
551	0	32748	
552	0	32792	
553	0	32796	
554	0	32784	
555	0	32788	
556	0	32744	
557	0	32742	
558	0	32748	
559	0	32756	
560	0	32716	
561	0	32808	
562	0	32780	
563	0	32844	
564	0	32764	
565	0	32712	
566	0	32800	
567	0	32716	
568	0	32776	
569	0	32808	
570	0	32832	
571	0	32774	
572	0	32784	
573	0	32772	
574	0	32788	
575	0	32852	
576	0	32868	
577	0	32800	
578	0	32816	
579	0	32800	
580	0	32796	
581	0	32800	
582	0	32748	
583	0	32772	
584	0	32724	
585	0	32736	
586	0	32788	
587	0	32776	
588	0	32784	
589	0	32768	
590	0	32754	
591	0	32804	
592	0	32836	
593	0	32720	
594	0	32788	
595	0	32736	
596	0	32676	
597	0	32712	
598	0	32784	
599	0	32748	
600	0	32812	
601	0	32825	
602	0	32912	
603	0	32812	
604	0	32750	
605	0	32784	
606	0	32792	
607	0	32756	
608	0	32764	
609	0	32728	
610	0	32750	
611	0	32789	
612	0	32736	
613	0	32760	
614	0	32792	
615	0	32788	
616	0	32856	
617	0	32852	
618	0	32775	
619	0	32816	
620	0	32776	
621	0	32748	
622	0	32760	
623	0	32789	
624	0	32704	
625	0	32732	
626	0	32744	
627	0	32772	
628	0	32776	
629	0	32720	
630	0	32704	
631	0	32696	
632	0	32692	
633	0	32816	
634	0	32828	
635	0	32832	
636	0	32788	
637	0	32800	
638	0	32780	
639	0	32812	
640	0	32816	
641	0	32828	
642	0	32780	
643	0	32741	
644	0	32772	
645	0	32740	
646	0	32732	
647	0	32708	
648	0	32792	
649	0	32868	
650	0	32784	
651	0	32852	
652	0	32800	
653	0	32860	
654	0	32824	
655	0	32826	
656	0	32744	
657	0	32736	
658	0	32736	
659	0	32781	
660	0	32804	
661	0	32768	
662	0	32784	
663	0	32768	
664	0	32812	
665	0	32736	
666	0	32792	
667	0	32816	
668	0	32800	
669	0	32772	
670	0	32764	
671	0	32764	
672	0	32744	
673	0	32756	
674	0	32716	
675	0	32788	
676	0	32820	
677	0	32837	
678	0	32824	
679	0	32879	
680	0	32736	
681	0	32760	
682	0	32764	
683	0	32816	
684	0	32798	
685	0	32804	
686	0	32765	
687	0	32788	
688	0	32752	
689	0	32744	
690	0	32660	
691	0	32696	
692	0	32688	
693	0	32736	
694	0	32796	
695	0	32790	
696	0	32796	
697	0	32828	
698	0	32824	
699	0	32748	
700	0	32828	
701	0	32820	
702	0	32828	
703	0	32784	
704	0	32728	
705	0	32762	
706	0	32798	
707	0	32788	
708	0	32809	
709	0	32733	
710	0	32788	
711	0	32816	
712	0	32768	
713	0	32828	
714	0	32832	
715	0	32824	
716	0	32756	
717	0	32784	
718	0	32764	
719	0	32772	
720	0	32741	
721	0	32724	
722	0	32844	
723	0	32804	
724	0	32768	
725	0	32772	
726	0	32740	
727	0	32729	
728	0	32732	
729	0	32740	
730	0	32737	
731	0	32768	
732	0	32776	
733	0	32785	
734	0	32740	
735	0	32804	
736	0	32748	
737	0	32776	
738	0	32776	
739	0	32778	
740	0	32792	
741	0	32740	
742	0	32716	
743	0	32812	
744	0	32856	
745	0	32828	
746	0	32828	
747	0	32788	
748	0	32772	
749	0	32758	
750	0	32816	
751	0	32740	
752	0	32792	
753	0	32752	
754	0	32724	
755	0	32737	
756	0	32808	
757	0	32848	
758	0	32764	
759	0	32788	
760	0	32789	
761	0	32861	
762	0	32838	
763	0	32860	
764	0	32796	
765	0	32840	
766	0	32809	
767	0	32766	
768	0	32812	
769	0	32764	
770	0	32708	
771	0	32720	
772	0	32764	
773	0	32776	
774	0	32789	
775	0	32760	
776	0	32860	
777	0	32816	
778	0	32752	
779	0	32756	
780	0	32768	
781	0	32796	
782	0	32744	
783	0	32809	
784	0	32788	
785	0	32908	
786	0	32828	
787	0	32776	
788	0	32808	
789	0	32788	
790	0	32740	
791	0	32800	
792	0	32748	
793	0	32728	
794	0	32757	
795	0	32708	
796	0	32761	
797	0	32798	
798	0	32744	
799	0	32816	
800	0	32902	
801	0	32800	
802	0	32788	
803	0	32780	
804	0	32728	
805	0	32676	
806	0	32712	
807	0	32764	
808	0	32772	
809	0	32774	
810	0	32760	
811	0	32724	
812	0	32756	
813	0	32792	
814	0	32785	
815	0	32802	
816	0	32800	
817	0	32764	
818	0	32744	
819	0	32796	
820	0	32821	
821	0	32740	
822	0	32790	
823	0	32760	
824	0	32796	
825	0	32752	
826	0	32760	
827	0	32784	
828	0	32760	
829	0	32760	
830	0	32716	
831	0	32733	
832	0	32792	
833	0	32824	
834	0	32816	
835	0	32804	
836	0	32736	
837	0	32740	
838	0	32824	
839	0	32768	
840	0	32813	
841	0	32780	
842	0	32732	
843	0	32766	
844	0	32780	
845	0	32816	
846	0	32792	
847	0	32737	
848	0	32728	
849	0	32740	
850	0	32712	
851	0	32790	
852	0	32782	
853	0	32772	
854	0	32752	
855	0	32786	
856	0	32796	
857	0	32752	
858	0	32812	
859	0	32788	
860	0	32796	
861	0	32800	
862	0	32756	
863	0	32788	
864	0	32812	
865	0	32788	
866	0	32826	
867	0	32770	
868	0	32794	
869	0	32800	
870	0	32724	
871	0	32832	
872	0	32832	
873	0	32637	
874	0	32750	
875	0	32776	
876	0	32688	
877	0	32760	
878	0	32768	
879	0	32796	
880	0	32824	
881	0	32808	
882	0	32828	
883	0	32800	
884	0	32844	
885	0	32812	
886	0	32720	
887	0	32740	
888	0	32784	
889	0	32860	
890	0	32824	
891	0	32766	
892	0	32758	
893	0	32836	
894	0	32702	
895	0	32734	
896	0	32728	
897	0	32824	
898	0	32793	
899	0	32768	
900	0	32750	
901	0	32868	
902	0	32812	
903	0	32764	
904	0	32732	
905	0	32763	
906	0	32708	
907	0	32802	
908	0	32768	
909	0	32780	
910	0	32772	
911	0	32716	
912	0	32788	
913	0	32792	
914	0	32832	
915	0	32748	
916	0	32804	
917	0	32782	
918	0	32768	
919	0	32792	
920	0	32802	
921	0	32848	
922	0	32828	
923	0	32801	
924	0	32740	
925	0	32828	
926	0	32732	
927	0	32741	
928	0	32828	
929	0	32744	
930	0	32748	
931	0	32750	
932	0	32720	
933	0	32776	
934	0	32762	
935	0	32729	
936	0	32744	
937	0	32776	
938	0	32692	
939	0	32828	
940	0	32828	
941	0	32836	
942	0	32856	
943	0	32816	
944	0	32784	
945	0	32776	
946	0	32756	
947	0	32716	
948	0	32737	
949	0	32724	
950	0	32820	
951	0	32829	
952	0	32684	
953	0	32784	
954	0	32688	
955	0	32752	
956	0	32756	
957	0	32785	
958	0	32801	
959	0	32784	
960	0	32848	
961	0	32854	
962	0	32764	
963	0	32757	
964	0	32760	
965	0	32756	
966	0	32724	
967	0	32764	
968	0	32860	
969	0	32816	
970	0	32796	
971	0	32768	
972	0	32700	
973	0	32784	
974	0	32804	
975	0	32840	
976	0	32750	
977	0	32728	
978	0	32800	
979	0	32832	
980	0	32784	
981	0	32804	
982	0	32832	
983	0	32808	
984	0	32764	
985	0	32756	
986	0	32760	
987	0	32848	
988	0	32768	
989	0	32772	
990	0	32788	
991	0	32780	
992	0	32712	
993	0	32701	
994	0	32756	
995	0	32669	
996	0	32692	
997	0	32765	
998	0	32836	
999	0	32740	
1000	0	32792	
1001	0	32756	
1002	0	32756	
1003	0	32726	
1004	0	32804	
1005	0	32789	
1006	0	32812	
1007	0	32869	
1008	0	32776	
1009	0	32745	
1010	0	32848	
1011	0	32796	
1012	0	32784	
1013	0	32708	
1014	0	32774	
1015	0	32790	
1016	0	32780	
1017	0	32816	
1018	0	32796	
1019	0	32800	
1020	0	32836	
1021	0	32756	
1022	0	32772	
1023	0	32776	
1024	0	32800	
1025	0	32740	
1026	0	32760	
1027	0	32740	
1028	0	32720	
1029	0	32812	
1030	0	32716	
1031	0	32705	
1032	0	32804	
1033	0	32844	
1034	0	32824	
1035	0	32812	
1036	0	32812	
1037	0	32776	
1038	0	32772	
1039	0	32804	
1040	0	32852	
1041	0	32888	
1042	0	32744	
1043	0	32740	
1044	0	32796	
1045	0	32772	
1046	0	32752	
1047	0	32756	
1048	0	32704	
1049	0	32772	
1050	0	32764	
1051	0	32777	
1052	0	32793	
1053	0	32856	
1054	0	32844	
1055	0	32812	
1056	0	32836	
1057	0	32780	
1058	0	32814	
1059	0	32764	
1060	0	32716	
1061	0	32708	
1062	0	32736	
1063	0	32748	
1064	0	32744	
1065	0	32748	
1066	0	32800	
1067	0	32868	
1068	0	32784	
1069	0	32868	
1070	0	32772	
1071	0	32772	
1072	0	32884	
1073	0	32804	
1074	0	32776	
1075	0	32799	
1076	0	32828	
1077	0	32774	
1078	0	32772	
1079	0	32848	
1080	0	32820	
1081	0	32768	
1082	0	32784	
1083	0	32776	
1084	0	32788	
1085	0	32812	
1086	0	32736	
1087	0	32740	
1088	0	32785	
1089	0	32752	
1090	0	32784	
1091	0	32732	
1092	0	32758	
1093	0	32728	
1094	0	32734	
1095	0	32816	
1096	0	32848	
1097	0	32768	
1098	0	32828	
1099	0	32816	
1100	0	32812	
1101	0	32772	
1102	0	32804	
1103	0	32784	
1104	0	32764	
1105	0	32796	
1106	0	32764	
1107	0	32716	
1108	0	32752	
1109	0	32692	
1110	0	32696	
1111	0	32760	
1112	0	32752	
1113	0	32880	
1114	0	32876	
1115	0	32816	
1116	0	32785	
1117	0	32748	
1118	0	32744	
1119	0	32808	
1120	0	32788	
1121	0	32741	
1122	0	32748	
1123	0	32812	
1124	0	32756	
1125	0	32824	
1126	0	32846	
1127	0	32756	
1128	0	32784	
1129	0	32712	
1130	0	32744	
1131	0	32704	
1132	0	32826	
1133	0	32773	
1134	0	32764	
1135	0	32756	
1136	0	32766	
1137	0	32756	
1138	0	32788	
1139	0	32816	
1140	0	32800	
1141	0	32800	
1142	0	32868	
1143	0	32772	
1144	0	32748	
1145	0	32824	
1146	0	32780	
1147	0	32752	
1148	0	32832	
1149	0	32804	
1150	0	32744	
1151	0	32704	
1152	0	32660	
1153	0	32776	
1154	0	32732	
1155	0	32764	
1156	0	32824	
1157	0	32820	
1158	0	32818	
1159	0	32800	
1160	0	32832	
1161	0	32824	
1162	0	32788	
1163	0	32776	
1164	0	32768	
1165	0	32716	
1166	0	32692	
1167	0	32724	
1168	0	32792	
1169	0	32716	
1170	0	32812	
1171	0	32744	
1172	0	32812	
1173	0	32772	
1174	0	32800	
1175	0	32744	
1176	0	32758	
1177	0	32762	
1178	0	32804	
1179	0	32784	
1180	0	32748	
1181	0	32784	
1182	0	32784	
1183	0	32780	
1184	0	32740	
1185	0	32768	
1186	0	32816	
1187	0	32757	
1188	0	32788	
1189	0	32872	
1190	0	32812	
1191	0	32796	
1192	0	32813	
1193	0	32762	
1194	0	32768	
1195	0	32752	
1196	0	32720	
1197	0	32752	
1198	0	32788	
1199	0	32736	
1200	0	32744	
1201	0	32784	
1202	0	32744	
1203	0	32706	
1204	0	32766	
1205	0	32814	
1206	0	32704	
1207	0	32712	
1208	0	32700	
1209	0	32748	
1210	0	32748	
1211	0	32772	
1212	0	32766	
1213	0	32804	
1214	0	32768	
1215	0	32844	
1216	0	32772	
1217	0	32812	
1218	0	32824	
1219	0	32892	
1220	0	32829	
1221	0	32836	
1222	0	32848	
1223	0	32878	
1224	0	32872	
1225	0	32756	
1226	0	32780	
1227	0	32816	
1228	0	32790	
1229	0	32783	
1230	0	32794	
1231	0	32748	
1232	0	32760	
1233	0	32776	
1234	0	32688	
1235	0	32744	
1236	0	32788	
1237	0	32804	
1238	0	32668	
1239	0	32726	
1240	0	32812	
1241	0	32768	
1242	0	32816	
1243	0	32812	
1244	0	32792	
1245	0	32813	
1246	0	32846	
1247	0	32860	
1248	0	32756	
1249	0	32778	
1250	0	32756	
1251	0	32777	
1252	0	32744	
1253	0	32784	
1254	0	32788	
1255	0	32780	
1256	0	32736	
1257	0	32740	
1258	0	32780	
1259	0	32736	
1260	0	32733	
1261	0	32792	
1262	0	32840	
1263	0	32752	
1264	0	32736	
1265	0	32736	
1266	0	32721	
1267	0	32740	
1268	0	32838	
1269	0	32796	
1270	0	32856	
1271	0	32764	
1272	0	32812	
1273	0	32830	
1274	0	32748	
1275	0	32780	
1276	0	32740	
1277	0	32706	
1278	0	32696	
1279	0	32748	
1280	0	32804	
1281	0	32804	
1282	0	32778	
1283	0	32696	
1284	0	32862	
1285	0	32789	
1286	0	32800	
1287	0	32774	
1288	0	32736	
1289	0	32860	
1290	0	32820	
1291	0	32800	
1292	0	32828	
1293	0	32788	
1294	0	32796	
1295	0	32808	
1296	0	32804	
1297	0	32764	
1298	0	32840	
1299	0	32832	
1300	0	32764	
1301	0	32766	
1302	0	32744	
1303	0	32736	
1304	0	32806	
1305	0	32692	
1306	0	32752	
1307	0	32836	
1308	0	32776	
1309	0	32789	
1310	0	32824	
1311	0	32788	
1312	0	32804	
1313	0	32864	
1314	0	32740	
1315	0	32676	
1316	0	32736	
1317	0	32676	
1318	0	32700	
1319	0	32680	
1320	0	32669	
1321	0	32741	
1322	0	32756	
1323	0	32752	
1324	0	32834	
1325	0	32825	
1326	0	32885	
1327	0	32820	
1328	0	32781	
1329	0	32844	
1330	0	32789	
1331	0	32812	
1332	0	32824	
1333	0	32737	
1334	0	32792	
1335	0	32836	
1336	0	32837	
1337	0	32798	
1338	0	32812	
1339	0	32828	
1340	0	32873	
1341	0	32816	
1342	0	32788	
1343	0	32712	
1344	0	32756	
1345	0	32744	
1346	0	32752	
1347	0	32668	
1348	0	32708	
1349	0	32696	
1350	0	32693	
1351	0	32710	
1352	0	32829	
1353	0	32896	
1354	0	32868	
1355	0	32836	
1356	0	32864	
1357	0	32772	
1358	0	32776	
1359	0	32766	
1360	0	32656	
1361	0	32652	
1362	0	32768	
1363	0	32784	
1364	0	32752	
1365	0	32720	
1366	0	32764	
1367	0	32800	
1368	0	32760	
1369	0	32780	
1370	0	32816	
1371	0	32796	
1372	0	32808	
1373	0	32720	
1374	0	32740	
1375	0	32776	
1376	0	32856	
1377	0	32936	
1378	0	32789	
1379	0	32812	
1380	0	32832	
1381	0	32804	
1382	0	32760	
1383	0	32760	
1384	0	32766	
1385	0	32776	
1386	0	32761	
1387	0	32713	
1388	0	32672	
1389	0	32804	
1390	0	32732	
1391	0	32684	
1392	0	32760	
1393	0	32740	
1394	0	32792	
1395	0	32862	
1396	0	32864	
1397	0	32844	
1398	0	32852	
1399	0	32756	
1400	0	32750	
1401	0	32840	
1402	0	32804	
1403	0	32792	
1404	0	32712	
1405	0	32756	
1406	0	32752	
1407	0	32716	
1408	0	32828	
1409	0	32800	
1410	0	32820	
1411	0	32760	
1412	0	32800	
1413	0	32748	
1414	0	32756	
1415	0	32798	
1416	0	32732	
1417	0	32700	
1418	0	32708	
1419	0	32732	
1420	0	32740	
1421	0	32844	
1422	0	32852	
1423	0	32814	
1424	0	32768	
1425	0	32852	
1426	0	32828	
1427	0	32784	
1428	0	32804	
1429	0	32824	
1430	0	32740	
1431	0	32848	
1432	0	32840	
1433	0	32774	
1434	0	32808	
1435	0	32812	
1436	0	32812	
1437	0	32844	
1438	0	32776	
1439	0	32632	
1440	0	32756	
1441	0	32669	
1442	0	32709	
1443	0	32768	
1444	0	32724	
1445	0	32744	
1446	0	32812	
1447	0	32830	
1448	0	32812	
1449	0	32800	
1450	0	32788	
1451	0	32804	
1452	0	32744	
1453	0	32836	
1454	0	32800	
1455	0	32740	
1456	0	32828	
1457	0	32820	
1458	0	32792	
1459	0	32844	
1460	0	32840	
1461	0	32742	
1462	0	32772	
1463	0	32792	
1464	0	32772	
1465	0	32772	
1466	0	32740	
1467	0	32744	
1468	0	32756	
1469	0	32740	
1470	0	32732	
1471	0	32836	
1472	0	32853	
1473	0	32804	
1474	0	32740	
1475	0	32716	
1476	0	32740	
1477	0	32820	
1478	0	32838	
1479	0	32772	
1480	0	32784	
1481	0	32756	
1482	0	32800	
1483	0	32796	
1484	0	32828	
1485	0	32772	
1486	0	32778	
1487	0	32708	
1488	0	32832	
1489	0	32736	
1490	0	32700	
1491	0	32813	
1492	0	32732	
1493	0	32744	
1494	0	32817	
1495	0	32800	
1496	0	32740	
1497	0	32752	
1498	0	32864	
1499	0	32756	
1500	0	32768	
1501	0	32792	
1502	0	32846	
1503	0	32777	
1504	0	32752	
1505	0	32760	
1506	0	32760	
1507	0	32820	
1508	0	32784	
1509	0	32748	
1510	0	32809	
1511	0	32780	
1512	0	32744	
1513	0	32800	
1514	0	32780	
1515	0	32768	
1516	0	32684	
1517	0	32696	
1518	0	32716	
1519	0	32660	
1520	0	32749	
1521	0	32798	
1522	0	32824	
1523	0	32756	
1524	0	32784	
1525	0	32776	
1526	0	32772	
1527	0	32804	
1528	0	32748	
1529	0	32772	
1530	0	32893	
1531	0	32832	
1532	0	32762	
1533	0	32808	
1534	0	32876	
1535	0	32848	
1536	0	32801	
1537	0	32804	
1538	0	32732	
1539	0	32752	
1540	0	32804	
1541	0	32732	
1542	0	32756	
1543	0	32817	
1544	0	32768	
1545	0	32772	
1546	0	32840	
1547	0	32796	
1548	0	32741	
1549	0	32680	
1550	0	32712	
1551	0	32761	
1552	0	32736	
1553	0	32796	
1554	0	32788	
1555	0	32840	
1556	0	32781	
1557	0	32812	
1558	0	32800	
1559	0	32856	
1560	0	32869	
1561	0	32796	
1562	0	32780	
1563	0	32750	
1564	0	32732	
1565	0	32780	
1566	0	32781	
1567	0	32728	
1568	0	32716	
1569	0	32728	
1570	0	32772	
1571	0	32772	
1572	0	32824	
1573	0	32793	
1574	0	32776	
1575	0	32713	
1576	0	32740	
1577	0	32730	
1578	0	32760	
1579	0	32824	
1580	0	32808	
1581	0	32824	
1582	0	32816	
1583	0	32775	
1584	0	32748	
1585	0	32852	
1586	0	32828	
1587	0	32797	
1588	0	32736	
1589	0	32728	
1590	0	32684	
1591	0	32772	
1592	0	32801	
1593	0	32789	
1594	0	32756	
1595	0	32804	
1596	0	32846	
1597	0	32812	
1598	0	32832	
1599	0	32708	
1600	0	32768	
1601	0	32740	
1602	0	32824	
1603	0	32876	
1604	0	32852	
1605	0	32776	
1606	0	32700	
1607	0	32782	
1608	0	32744	
1609	0	32788	
1610	0	32764	
1611	0	32752	
1612	0	32752	
1613	0	32824	
1614	0	32762	
1615	0	32788	
1616	0	32724	
1617	0	32796	
1618	0	32748	
1619	0	32684	
1620	0	32772	
1621	0	32704	
1622	0	32801	
1623	0	32788	
1624	0	32808	
1625	0	32816	
1626	0	32844	
1627	0	32848	
1628	0	32820	
1629	0	32764	
1630	0	32820	
1631	0	32804	
1632	0	32764	
1633	0	32717	
1634	0	32748	
1635	0	32696	
1636	0	32780	
1637	0	32824	
1638	0	32804	
1639	0	32832	
1640	0	32808	
1641	0	32680	
1642	0	32756	
1643	0	32716	
1644	0	32784	
1645	0	32704	
1646	0	32812	
1647	0	32824	
1648	0	32744	
1649	0	32732	
1650	0	32797	
1651	0	32992	
1652	0	32928	
1653	0	32792	
1654	0	32712	
1655	0	32712	
1656	0	32804	
1657	0	32840	
1658	0	32756	
1659	0	32670	
1660	0	32708	
1661	0	32812	
1662	0	32768	
1663	0	32782	
1664	0	32745	
1665	0	32732	
1666	0	32768	
1667	0	32752	
1668	0	32744	
1669	0	32784	
1670	0	32832	
1671	0	32828	
1672	0	32799	
1673	0	32856	
1674	0	32788	
1675	0	32760	
1676	0	32762	
1677	0	32744	
1678	0	32745	
1679	0	32794	
1680	0	32888	
1681	0	32848	
1682	0	32812	
1683	0	32800	
1684	0	32764	
1685	0	32704	
1686	0	32716	
1687	0	32792	
1688	0	32736	
1689	0	32724	
1690	0	32728	
1691	0	32752	
1692	0	32780	
1693	0	32724	
1694	0	32796	
1695	0	32812	
1696	0	32772	
1697	0	32756	
1698	0	32820	
1699	0	32852	
1700	0	32728	
1701	0	32732	
1702	0	32680	
1703	0	32756	
1704	0	32804	
1705	0	32780	
1706	0	32804	
1707	0	32924	
1708	0	32856	
1709	0	32784	
1710	0	32844	
1711	0	32808	
1712	0	32830	
1713	0	32694	
1714	0	32757	
1715	0	32744	
1716	0	32751	
1717	0	32872	
1718	0	32792	
1719	0	32736	
1720	0	32805	
1721	0	32824	
1722	0	32760	
1723	0	32713	
1724	0	32788	
1725	0	32780	
1726	0	32768	
1727	0	32768	
1728	0	32748	
1729	0	32828	
1730	0	32792	
1731	0	32748	
1732	0	32748	
1733	0	32720	
1734	0	32704	
1735	0	32760	
1736	0	32800	
1737	0	32840	
1738	0	32806	
1739	0	32788	
1740	0	32757	
1741	0	32772	
1742	0	32764	
1743	0	32784	
1744	0	32840	
1745	0	32848	
1746	0	32872	
1747	0	32792	
1748	0	32708	
1749	0	32744	
1750	0	32740	
1751	0	32776	
1752	0	32772	
1753	0	32788	
1754	0	32832	
1755	0	32816	
1756	0	32756	
1757	0	32768	
1758	0	32750	
1759	0	32728	
1760	0	32784	
1761	0	32800	
1762	0	32788	
1763	0	32832	
1764	0	32844	
1765	0	32724	
1766	0	32764	
1767	0	32752	
1768	0	32774	
1769	0	32740	
1770	0	32784	
1771	0	32804	
1772	0	32752	
1773	0	32776	
1774	0	32796	
1775	0	32808	
1776	0	32792	
1777	0	32716	
1778	0	32734	
1779	0	32740	
1780	0	32744	
1781	0	32839	
1782	0	32848	
1783	0	32800	
1784	0	32772	
1785	0	32800	
1786	0	32764	
1787	0	32766	
1788	0	32812	
1789	0	32804	
1790	0	32718	
1791	0	32696	
1792	0	32804	
1793	0	32804	
1794	0	32752	
1795	0	32876	
1796	0	32800	
1797	0	32828	
1798	0	32780	
1799	0	32742	
1800	0	32696	
1801	0	32784	
1802	0	32685	
1803	0	32815	
1804	0	32848	
1805	0	32840	
1806	0	32668	
1807	0	32684	
1808	0	32696	
1809	0	32848	
1810	0	32836	
1811	0	32792	
1812	0	32780	
1813	0	32784	
1814	0	32769	
1815	0	32785	
1816	0	32760	
1817	0	32764	
1818	0	32828	
1819	0	32808	
1820	0	32740	
1821	0	32765	
1822	0	32788	
1823	0	32780	
1824	0	32772	
1825	0	32804	
1826	0	32748	
1827	0	32800	
1828	0	32756	
1829	0	32784	
1830	0	32876	
1831	0	32800	
1832	0	32756	
1833	0	32716	
1834	0	32756	
1835	0	32796	
1836	0	32816	
1837	0	32828	
1838	0	32792	
1839	0	32800	
1840	0	32728	
1841	0	32765	
1842	0	32732	
1843	0	32804	
1844	0	32732	
1845	0	32768	
1846	0	32784	
1847	0	32832	
1848	0	32804	
1849	0	32736	
1850	0	32792	
1851	0	32744	
1852	0	32764	
1853	0	32836	
1854	0	32752	
1855	0	32768	
1856	0	32796	
1857	0	32836	
1858	0	32760	
1859	0	32796	
1860	0	32772	
1861	0	32772	
1862	0	32748	
1863	0	32692	
1864	0	32728	
1865	0	32848	
1866	0	32800	
1867	0	32752	
1868	0	32684	
1869	0	32832	
1870	0	32876	
1871	0	32924	
1872	0	32892	
1873	0	32788	
1874	0	32773	
1875	0	32719	
1876	0	32776	
1877	0	32758	
1878	0	32716	
1879	0	32708	
1880	0	32736	
1881	0	32804	
1882	0	32744	
1883	0	32788	
1884	0	32798	
1885	0	32808	
1886	0	32765	
1887	0	32744	
1888	0	32798	
1889	0	32832	
1890	0	32814	
1891	0	32704	
1892	0	32772	
1893	0	32820	
1894	0	32733	
1895	0	32732	
1896	0	32696	
1897	0	32872	
1898	0	32844	
1899	0	32768	
1900	0	32744	
1901	0	32784	
1902	0	32716	
1903	0	32750	
1904	0	32756	
1905	0	32760	
1906	0	32732	
1907	0	32821	
1908	0	32816	
1909	0	32784	
1910	0	32732	
1911	0	32752	
1912	0	32776	
1913	0	32940	
1914	0	32848	
1915	0	32784	
1916	0	32838	
1917	0	32802	
1918	0	32724	
1919	0	32772	
1920	0	32796	
1921	0	32716	
1922	0	32824	
1923	0	32912	
1924	0	32828	
1925	0	32876	
1926	0	32760	
1927	0	32668	
1928	0	32750	
1929	0	32772	
1930	0	32820	
1931	0	32764	
1932	0	32736	
1933	0	32756	
1934	0	32780	
1935	0	32768	
1936	0	32784	
1937	0	32752	
1938	0	32780	
1939	0	32796	
1940	0	32800	
1941	0	32774	
1942	0	32772	
1943	0	32780	
1944	0	32808	
1945	0	32793	
1946	0	32768	
1947	0	32816	
1948	0	32784	
1949	0	32764	
1950	0	32832	
1951	0	32805	
1952	0	32752	
1953	0	32848	
1954	0	32740	
1955	0	32760	
1956	0	32780	
1957	0	32748	
1958	0	32752	
1959	0	32740	
1960	0	32776	
1961	0	32724	
1962	0	32756	
1963	0	32752	
1964	0	32804	
1965	0	32756	
1966	0	32784	
1967	0	32720	
1968	0	32732	
1969	0	32836	
1970	0	32794	
1971	0	32724	
1972	0	32772	
1973	0	32776	
1974	0	32824	
1975	0	32768	
1976	0	32760	
1977	0	32812	
1978	0	32765	
1979	0	32872	
1980	0	32828	
1981	0	32796	
1982	0	32716	
1983	0	32720	
1984	0	32764	
1985	0	32864	
1986	0	32792	
1987	0	32788	
1988	0	32692	
1989	0	32772	
1990	0	32836	
1991	0	32869	
1992	0	32812	
1993	0	32748	
1994	0	32748	
1995	0	32668	
1996	0	32756	
1997	0	32692	
1998	0	32784	
1999	0	32760	
2000	0	32776	
2001	0	32768	
2002	0	32820	
2003	0	32772	
2004	0	32837	
2005	0	32788	
2006	0	32809	
2007	0	32816	
2008	0	32760	
2009	0	32800	
2010	0	32804	
2011	0	32829	
2012	0	32748	
2013	0	32792	
2014	0	32720	
2015	0	32790	
2016	0	32833	
2017	0	32794	
2018	0	32832	
2019	0	32780	
2020	0	32780	
2021	0	32812	
2022	0	32776	
2023	0	32780	
2024	0	32808	
2025	0	32800	
2026	0	32764	
2027	0	32788	
2028	0	32804	
2029	0	32832	
2030	0	32800	
2031	0	32736	
2032	0	32772	
2033	0	32768	
2034	0	32750	
2035	0	32726	
2036	0	32809	
2037	0	32784	
2038	0	32768	
2039	0	32780	
2040	0	32788	
2041	0	32748	
2042	0	32770	
2043	0	32712	
2044	0	32680	
2045	0	32684	
2046	0	32744	
2047	0	32732	
2048	0	32732	
2049	0	32836	
2050	0	32744	
2051	0	32792	
2052	0	32776	
2053	0	32804	
2054	0	32828	
2055	0	32798	
2056	0	32897	
2057	0	32769	
2058	0	32764	
2059	0	32720	
2060	0	32760	
2061	0	32876	
2062	0	32850	
2063	0	32808	
2064	0	32804	
2065	0	32832	
2066	0	32736	
2067	0	32748	
2068	0	32764	
2069	0	32788	
2070	0	32788	
2071	0	32808	
2072	0	32812	
2073	0	32820	
2074	0	32760	
2075	0	32760	
2076	0	32792	
2077	0	32784	
2078	0	32828	
2079	0	32792	
2080	0	32740	
2081	0	32798	
2082	0	32796	
2083	0	32788	
2084	0	32832	
2085	0	32804	
2086	0	32878	
2087	0	32732	
2088	0	32732	
2089	0	32780	
2090	0	32748	
2091	0	32796	
2092	0	32815	
2093	0	32724	
2094	0	32752	
2095	0	32709	
2096	0	32752	
2097	0	32768	
2098	0	32788	
2099	0	32772	
2100	0	32792	
2101	0	32744	
2102	0	32756	
2103	0	32752	
2104	0	32776	
2105	0	32828	
2106	0	32716	
2107	0	32820	
2108	0	32761	
2109	0	32688	
2110	0	32788	
2111	0	32828	
2112	0	32720	
2113	0	32800	
2114	0	32840	
2115	0	32816	
2116	0	32852	
2117	0	32796	
2118	0	32804	
2119	0	32740	
2120	0	32816	
2121	0	32800	
2122	0	32796	
2123	0	32768	
2124	0	32820	
2125	0	32905	
2126	0	32768	
2127	0	32808	
2128	0	32744	
2129	0	32836	
2130	0	32740	
2131	0	32748	
2132	0	32774	
2133	0	32792	
2134	0	32768	
2135	0	32788	
2136	0	32789	
2137	0	32724	
2138	0	32812	
2139	0	32720	
2140	0	32768	
2141	0	32796	
2142	0	32736	
2143	0	32756	
2144	0	32766	
2145	0	32836	
2146	0	32788	
2147	0	32732	
2148	0	32800	
2149	0	32832	
2150	0	32796	
2151	0	32764	
2152	0	32772	
2153	0	32784	
2154	0	32796	
2155	0	32796	
2156	0	32752	
2157	0	32764	
2158	0	32784	
2159	0	32804	
2160	0	32796	
2161	0	32732	
2162	0	32740	
2163	0	32836	
2164	0	32832	
2165	0	32776	
2166	0	32744	
2167	0	32836	
2168	0	32677	
2169	0	32796	
2170	0	32780	
2171	0	32790	
2172	0	32789	
2173	0	32756	
2174	0	32800	
2175	0	32792	
2176	0	32736	
2177	0	32778	
2178	0	32808	
2179	0	32780	
2180	0	32836	
2181	0	32752	
2182	0	32812	
2183	0	32824	
2184	0	32800	
2185	0	32772	
2186	0	32768	
2187	0	32766	
2188	0	32820	
2189	0	32784	
2190	0	32752	
2191	0	32750	
2192	0	32796	
2193	0	32772	
2194	0	32776	
2195	0	32664	
2196	0	32718	
2197	0	32792	
2198	0	32804	
2199	0	32768	
2200	0	32764	
2201	0	32756	
2202	0	32804	
2203	0	32744	
2204	0	32816	
2205	0	32785	
2206	0	32804	
2207	0	32808	
2208	0	32797	
2209	0	32812	
2210	0	32784	
2211	0	32812	
2212	0	32796	
2213	0	32808	
2214	0	32792	
2215	0	32848	
2216	0	32744	
2217	0	32812	
2218	0	32732	
2219	0	32724	
2220	0	32724	
2221	0	32764	
2222	0	32820	
2223	0	32752	
2224	0	32804	
2225	0	32824	
2226	0	32766	
2227	0	32804	
2228	0	32826	
2229	0	32780	
2230	0	32800	
2231	0	32788	
2232	0	32796	
2233	0	32756	
2234	0	32772	
2235	0	32780	
2236	0	32832	
2237	0	32804	
2238	0	32790	
2239	0	32740	
2240	0	32808	
2241	0	32812	
2242	0	32724	
2243	0	32724	
2244	0	32780	
2245	0	32752	
2246	0	32712	
2247	0	32777	
2248	0	32836	
2249	0	32744	
2250	0	32784	
2251	0	32820	
2252	0	32840	
2253	0	32800	
2254	0	32816	
2255	0	32833	
2256	0	32864	
2257	0	32801	
2258	0	32820	
2259	0	32764	
2260	0	32784	
2261	0	32656	
2262	0	32804	
2263	0	32800	
2264	0	32756	
2265	0	32784	
2266	0	32792	
2267	0	32828	
2268	0	32808	
2269	0	32740	
2270	0	32686	
2271	0	32760	
2272	0	32792	
2273	0	32768	
2274	0	32820	
2275	0	32822	
2276	0	32764	
2277	0	32760	
2278	0	32748	
2279	0	32800	
2280	0	32820	
2281	0	32788	
2282	0	32786	
2283	0	32756	
2284	0	32757	
2285	0	32793	
2286	0	32716	
2287	0	32748	
2288	0	32800	
2289	0	32828	
2290	0	32822	
2291	0	32736	
2292	0	32744	
2293	0	32720	
2294	0	32736	
2295	0	32766	
2296	0	32812	
2297	0	32744	
2298	0	32836	
2299	0	32744	
2300	0	32752	
2301	0	32832	
2302	0	32788	
2303	0	32873	
2304	0	32816	
2305	0	32784	
2306	0	32808	
2307	0	32813	
2308	0	32788	
2309	0	32804	
2310	0	32796	
2311	0	32848	
2312	0	32801	
2313	0	32800	
2314	0	32700	
2315	0	32712	
2316	0	32740	
2317	0	32772	
2318	0	32788	
2319	0	32744	
2320	0	32728	
2321	0	32812	
2322	0	32748	
2323	0	32840	
2324	0	32820	
2325	0	32764	
2326	0	32780	
2327	0	32744	
2328	0	32780	
2329	0	32696	
2330	0	32776	
2331	0	32797	
2332	0	32758	
2333	0	32776	
2334	0	32788	
2335	0	32776	
2336	0	32794	
2337	0	32796	
2338	0	32853	
2339	0	32768	
2340	0	32756	
2341	0	32796	
2342	0	32825	
2343	0	32756	
2344	0	32852	
2345	0	32804	
2346	0	32764	
2347	0	32758	
2348	0	32749	
2349	0	32684	
2350	0	32768	
2351	0	32740	
2352	0	32708	
2353	0	32736	
2354	0	32780	
2355	0	32716	
2356	0	32800	
2357	0	32776	
2358	0	32808	
2359	0	32836	
2360	0	32736	
2361	0	32821	
2362	0	32744	
2363	0	32812	
2364	0	32812	
2365	0	32812	
2366	0	32804	
2367	0	32792	
2368	0	32774	
2369	0	32776	
2370	0	32796	
2371	0	32720	
2372	0	32829	
2373	0	32798	
2374	0	32788	
2375	0	32852	
2376	0	32836	
2377	0	32832	
2378	0	32728	
2379	0	32768	
2380	0	32700	
2381	0	32676	
2382	0	32662	
2383	0	32776	
2384	0	32868	
2385	0	32736	
2386	0	32816	
2387	0	32788	
2388	0	32785	
2389	0	32756	
2390	0	32840	
2391	0	32700	
2392	0	32761	
2393	0	32692	
2394	0	32768	
2395	0	32726	
2396	0	32816	
2397	0	32804	
2398	0	32784	
2399	0	32873	
2400	0	32884	
2401	0	32900	
2402	0	32884	
2403	0	32804	
2404	0	32756	
2405	0	32748	
2406	0	32732	
2407	0	32681	
2408	0	32708	
2409	0	32676	
2410	0	32732	
2411	0	32740	
2412	0	32792	
2413	0	32884	
2414	0	32908	
2415	0	32916	
2416	0	32792	
2417	0	32816	
2418	0	32767	
2419	0	32736	
2420	0	32734	
2421	0	32736	
2422	0	32812	
2423	0	32756	
2424	0	32708	
2425	0	32724	
2426	0	32740	
2427	0	32676	
2428	0	32672	
2429	0	32644	
2430	0	32708	
2431	0	32709	
2432	0	32688	
2433	0	32720	
2434	0	32768	
2435	0	32744	
2436	0	32748	
2437	0	32856	
2438	0	32821	
2439	0	32920	
2440	0	33030	
2441	0	33092	
2442	0	33060	
2443	0	32942	
2444	0	32840	
2445	0	32790	
2446	0	32780	
2447	0	32696	
2448	0	32736	
2449	0	32752	
2450	0	32744	
2451	0	32748	
2452	0	32729	
2453	0	32740	
2454	0	32764	
2455	0	32784	
2456	0	32774	
2457	0	32749	
2458	0	32776	
2459	0	32864	
2460	0	32776	
2461	0	32748	
2462	0	32716	
2463	0	32826	
2464	0	32737	
2465	0	32744	
2466	0	32676	
2467	0	32760	
2468	0	32708	
2469	0	32600	
2470	0	32684	
2471	0	32756	
2472	0	32756	
2473	0	32868	
2474	0	32876	
2475	0	32916	
2476	0	32852	
2477	0	32856	
2478	0	32892	
2479	0	32816	
2480	0	32821	
2481	0	32876	
2482	0	32852	
2483	0	32772	
2484	0	32776	
2485	0	32780	
2486	0	32716	
2487	0	32748	
2488	0	32644	
2489	0	32725	
2490	0	32624	
2491	0	32612	
2492	0	32604	
2493	0	32700	
2494	0	32868	
2495	0	32900	
2496	0	33038	
2497	0	32940	
2498	0	32804	
2499	0	32740	
2500	0	32600	
2501	0	32712	
2502	0	32860	
2503	0	32956	
2504	0	32965	
2505	0	33008	
2506	0	32844	
2507	0	32832	
2508	0	32776	
2509	0	32824	
2510	0	32792	
2511	0	32700	
2512	0	32676	
2513	0	32664	
2514	0	32668	
2515	0	32704	
2516	0	32640	
2517	0	32668	
2518	0	32732	
2519	0	32644	
2520	0	32712	
2521	0	32720	
2522	0	32809	
2523	0	32812	
2524	0	32880	
2525	0	32832	
2526	0	32884	
2527	0	32980	
2528	0	32924	
2529	0	32916	
2530	0	32916	
2531	0	32793	
2532	0	32832	
2533	0	32772	
2534	0	32804	
2535	0	32724	
2536	0	32764	
2537	0	32676	
2538	0	32688	
2539	0	32760	
2540	0	32769	
2541	0	32732	
2542	0	32804	
2543	0	32804	
2544	0	32736	
2545	0	32756	
2546	0	32820	
2547	0	32820	
2548	0	32800	
2549	0	32732	
2550	0	32680	
2551	0	32760	
2552	0	32736	
2553	0	32820	
2554	0	32780	
2555	0	32820	
2556	0	32741	
2557	0	32732	
2558	0	32796	
2559	0	32812	
2560	0	32820	
2561	0	32776	
2562	0	32796	
2563	0	32780	
2564	0	32824	
2565	0	32832	
2566	0	32836	
2567	0	32800	
2568	0	32784	
2569	0	32744	
2570	0	32792	
2571	0	32760	
2572	0	32744	
2573	0	32729	
2574	0	32740	
2575	0	32728	
2576	0	32700	
2577	0	32801	
2578	0	32792	
2579	0	32800	
2580	0	32784	
2581	0	32772	
2582	0	32808	
2583	0	32800	
2584	0	32796	
2585	0	32792	
2586	0	32780	
2587	0	32800	
2588	0	32729	
2589	0	32728	
2590	0	32716	
2591	0	32728	
2592	0	32664	
2593	0	32728	
2594	0	32776	
2595	0	32796	
2596	0	32926	
2597	0	32884	
2598	0	32856	
2599	0	32869	
2600	0	32932	
2601	0	32884	
2602	0	32804	
2603	0	32732	
2604	0	32680	
2605	0	32672	
2606	0	32648	
2607	0	32708	
2608	0	32685	
2609	0	32724	
2610	0	32748	
2611	0	32768	
2612	0	32792	
2613	0	32813	
2614	0	32780	
2615	0	32856	
2616	0	32824	
2617	0	32808	
2618	0	32792	
2619	0	32796	
2620	0	32804	
2621	0	32740	
2622	0	32760	
2623	0	32640	
2624	0	32688	
2625	0	32664	
2626	0	32764	
2627	0	32772	
2628	0	32832	
2629	0	32988	
2630	0	32996	
2631	0	32948	
2632	0	33024	
2633	0	32968	
2634	0	32772	
2635	0	32748	
2636	0	32728	
2637	0	32773	
2638	0	32744	
2639	0	32760	
2640	0	32760	
2641	0	32672	
2642	0	32697	
2643	0	32720	
2644	0	32708	
2645	0	32800	
2646	0	32800	
2647	0	32736	
2648	0	32672	
2649	0	32696	
2650	0	32728	
2651	0	32744	
2652	0	32762	
2653	0	32812	
2654	0	32824	
2655	0	32768	
2656	0	32744	
2657	0	32704	
2658	0	32736	
2659	0	32748	
2660	0	32712	
2661	0	32741	
2662	0	32772	
2663	0	32744	
2664	0	32817	
2665	0	32788	
2666	0	32836	
2667	0	32822	
2668	0	32820	
2669	0	32768	
2670	0	32784	
2671	0	32778	
2672	0	32828	
2673	0	32800	
2674	0	32788	
2675	0	32717	
2676	0	32816	
2677	0	32732	
2678	0	32692	
2679	0	32764	
2680	0	32816	
2681	0	32709	
2682	0	32798	
2683	0	32766	
2684	0	32732	
2685	0	32796	
2686	0	32789	
2687	0	32800	
2688	0	32732	
2689	0	32741	
2690	0	32770	
2691	0	32780	
2692	0	32784	
2693	0	32792	
2694	0	32800	
2695	0	32752	
2696	0	32780	
2697	0	32812	
2698	0	32752	
2699	0	32844	
2700	0	32916	
2701	0	32788	
2702	0	32840	
2703	0	32704	
2704	0	32692	
2705	0	32716	
2706	0	32725	
2707	0	32716	
2708	0	32778	
2709	0	32784	
2710	0	32736	
2711	0	32756	
2712	0	32734	
2713	0	32668	
2714	0	32716	
2715	0	32660	
2716	0	32748	
2717	0	32808	
2718	0	32744	
2719	0	32856	
2720	0	32920	
2721	0	32992	
2722	0	33008	
2723	0	33044	
2724	0	33065	
2725	0	32916	
2726	0	32696	
2727	0	32684	
2728	0	32676	
2729	0	32692	
2730	0	32736	
2731	0	32685	
2732	0	32672	
2733	0	32696	
2734	0	32704	
2735	0	32700	
2736	0	32684	
2737	0	32744	
2738	0	32808	
2739	0	32756	
2740	0	32832	
2741	0	32820	
2742	0	33008	
2743	0	32960	
2744	0	32912	
2745	0	32724	
2746	0	32716	
2747	0	32628	
2748	0	32688	
2749	0	32688	
2750	0	32664	
2751	0	32732	
2752	0	32736	
2753	0	32740	
2754	0	32768	
2755	0	32788	
2756	0	32956	
2757	0	32920	
2758	0	32860	
2759	0	32872	
2760	0	32824	
2761	0	32812	
2762	0	32680	
2763	0	32709	
2764	0	32724	
2765	0	32740	
2766	0	32748	
2767	0	32704	
2768	0	32688	
2769	0	32760	
2770	0	32748	
2771	0	32736	
2772	0	32804	
2773	0	32748	
2774	0	32800	
2775	0	32828	
2776	0	32796	
2777	0	32740	
2778	0	32812	
2779	0	32840	
2780	0	32756	
2781	0	32772	
2782	0	32748	
2783	0	32784	
2784	0	32772	
2785	0	32844	
2786	0	32816	
2787	0	32800	
2788	0	32792	
2789	0	32712	
2790	0	32749	
2791	0	32800	
2792	0	32780	
2793	0	32696	
2794	0	32801	
2795	0	32804	
2796	0	32728	
2797	0	32724	
2798	0	32772	
2799	0	32752	
2800	0	32796	
2801	0	32828	
2802	0	32864	
2803	0	32744	
2804	0	32848	
2805	0	32782	
2806	0	32764	
2807	0	32736	
2808	0	32744	
2809	0	32761	
2810	0	32696	
2811	0	32664	
2812	0	32592	
2813	0	32676	
2814	0	32780	
2815	0	32760	
2816	0	32893	
2817	0	32928	
2818	0	32960	
2819	0	33037	
2820	0	33016	
2821	0	33084	
2822	0	32958	
2823	0	32869	
2824	0	32676	
2825	0	32576	
2826	0	32584	
2827	0	32596	
2828	0	32672	
2829	0	32756	
2830	0	32720	
2831	0	32768	
2832	0	32744	
2833	0	32720	
2834	0	32728	
2835	0	32784	
2836	0	32748	
2837	0	32844	
2838	0	32848	
2839	0	32868	
2840	0	32889	
2841	0	32812	
2842	0	32748	
2843	0	32748	
2844	0	32749	
2845	0	32756	
2846	0	32764	
2847	0	32744	
2848	0	32752	
2849	0	32800	
2850	0	32844	
2851	0	32884	
2852	0	32800	
2853	0	32800	
2854	0	32804	
2855	0	32729	
2856	0	32700	
2857	0	32742	
2858	0	32748	
2859	0	32764	
2860	0	32772	
2861	0	32768	
2862	0	32804	
2863	0	32792	
2864	0	32816	
2865	0	32804	
2866	0	32752	
2867	0	32800	
2868	0	32752	
2869	0	32740	
2870	0	32820	
2871	0	32684	
2872	0	32680	
2873	0	32744	
2874	0	32756	
2875	0	32764	
2876	0	32828	
2877	0	32800	
2878	0	32836	
2879	0	32772	
2880	0	32724	
2881	0	32704	
2882	0	32764	
2883	0	32732	
2884	0	32760	
2885	0	32736	
2886	0	32762	
2887	0	32768	
2888	0	32864	
2889	0	32816	
2890	0	32712	
2891	0	32752	
2892	0	32742	
2893	0	32744	
2894	0	32816	
2895	0	32748	
2896	0	32760	
2897	0	32836	
2898	0	32780	
2899	0	32804	
2900	0	32832	
2901	0	32820	
2902	0	32760	
2903	0	32780	
2904	0	32808	
2905	0	32788	
2906	0	32700	
2907	0	32678	
2908	0	32724	
2909	0	32798	
2910	0	32648	
2911	0	32744	
2912	0	32780	
2913	0	32852	
2914	0	32824	
2915	0	32806	
2916	0	32756	
2917	0	32704	
2918	0	32796	
2919	0	32740	
2920	0	32684	
2921	0	32644	
2922	0	32742	
2923	0	32796	
2924	0	32804	
2925	0	32876	
2926	0	32932	
2927	0	32932	
2928	0	32916	
2929	0	32840	
2930	0	32760	
2931	0	32808	
2932	0	32848	
2933	0	32964	
2934	0	32832	
2935	0	32772	
2936	0	32832	
2937	0	32808	
2938	0	32788	
2939	0	32800	
2940	0	32661	
2941	0	32764	
2942	0	32764	
2943	0	32749	
2944	0	32708	
2945	0	32704	
2946	0	32684	
2947	0	32760	
2948	0	32720	
2949	0	32804	
2950	0	32886	
2951	0	32860	
2952	0	32696	
2953	0	32704	
2954	0	32716	
2955	0	32848	
2956	0	32952	
2957	0	32788	
2958	0	32808	
2959	0	32826	
2960	0	32760	
2961	0	32744	
2962	0	32780	
2963	0	32724	
2964	0	32788	
2965	0	32744	
2966	0	32776	
2967	0	32768	
2968	0	32854	
2969	0	32821	
2970	0	32756	
2971	0	32748	
2972	0	32800	
2973	0	32778	
2974	0	32796	
2975	0	32708	
2976	0	32773	
2977	0	32760	
2978	0	32792	
2979	0	32812	
2980	0	32800	
2981	0	32844	
2982	0	32740	
2983	0	32776	
2984	0	32820	
2985	0	32752	
2986	0	32804	
2987	0	32784	
2988	0	32696	
2989	0	32728	
2990	0	32672	
2991	0	32832	
2992	0	32698	
2993	0	32820	
2994	0	32796	
2995	0	32752	
2996	0	32728	
2997	0	32686	
2998	0	32780	
2999	0	32804	
3000	0	32828	
3001	0	32831	
3002	0	32820	
3003	0	32768	
3004	0	32840	
3005	0	32760	
3006	0	32740	
3007	0	32772	
3008	0	32800	
3009	0	32744	
3010	0	32780	
3011	0	32788	
3012	0	32832	
3013	0	32788	
3014	0	32780	
3015	0	32749	
3016	0	32724	
3017	0	32744	
3018	0	32761	
3019	0	32788	
3020	0	32783	
3021	0	32840	
3022	0	32756	
3023	0	32800	
3024	0	32728	
3025	0	32688	
3026	0	32712	
3027	0	32780	
3028	0	32780	
3029	0	32796	
3030	0	32808	
3031	0	32736	
3032	0	32812	
3033	0	32776	
3034	0	32881	
3035	0	32869	
3036	0	32928	
3037	0	32888	
3038	0	32820	
3039	0	32774	
3040	0	32788	
3041	0	32844	
3042	0	32878	
3043	0	32844	
3044	0	32693	
3045	0	32660	
3046	0	32748	
3047	0	32689	
3048	0	32782	
3049	0	32684	
3050	0	32732	
3051	0	32688	
3052	0	32720	
3053	0	32780	
3054	0	32796	
3055	0	32764	
3056	0	32796	
3057	0	32780	
3058	0	32784	
3059	0	32792	
3060	0	32740	
3061	0	32784	
3062	0	32716	
3063	0	32743	
3064	0	32812	
3065	0	32720	
3066	0	32780	
3067	0	32740	
3068	0	32724	
3069	0	32752	
3070	0	32716	
3071	0	32724	
3072	0	32776	
3073	0	32690	
3074	0	32836	
3075	0	32812	
3076	0	32892	
3077	0	32824	
3078	0	32824	
3079	0	32852	
3080	0	32824	
3081	0	32900	
3082	0	32820	
3083	0	32752	
3084	0	32636	
3085	0	32629	
3086	0	32676	
3087	0	32684	
3088	0	32860	
3089	0	32881	
3090	0	32772	
3091	0	32761	
3092	0	32816	
3093	0	32876	
3094	0	32902	
3095	0	32880	
3096	0	32888	
3097	0	32775	
3098	0	32752	
3099	0	32792	
3100	0	32772	
3101	0	32768	
3102	0	32832	
3103	0	32664	
3104	0	32652	
3105	0	32704	
3106	0	32888	
3107	0	32884	
3108	0	32796	
3109	0	32717	
3110	0	32713	
3111	0	32728	
3112	0	32676	
3113	0	32684	
3114	0	32700	
3115	0	32776	
3116	0	32744	
3117	0	32804	
3118	0	32804	
3119	0	32892	
3120	0	32882	
3121	0	32828	
3122	0	32748	
3123	0	32748	
3124	0	32764	
3125	0	32972	
3126	0	32972	
3127	0	32804	
3128	0	32744	
3129	0	32788	
3130	0	32754	
3131	0	32748	
3132	0	32676	
3133	0	32676	
3134	0	32812	
3135	0	32788	
3136	0	32776	
3137	0	32744	
3138	0	32724	
3139	0	32768	
3140	0	32748	
3141	0	32688	
3142	0	32768	
3143	0	32776	
3144	0	32852	
3145	0	32760	
3146	0	32780	
3147	0	32852	
3148	0	32860	
3149	0	32824	
3150	0	32716	
3151	0	32780	
3152	0	32676	
3153	0	32740	
3154	0	32824	
3155	0	32820	
3156	0	32856	
3157	0	32804	
3158	0	32800	
3159	0	32780	
3160	0	32748	
3161	0	32749	
3162	0	32756	
3163	0	32752	
3164	0	32798	
3165	0	32782	
3166	0	32832	
3167	0	32838	
3168	0	32736	
3169	0	32768	
3170	0	32717	
3171	0	32784	
3172	0	32700	
3173	0	32752	
3174	0	32840	
3175	0	32800	
3176	0	32816	
3177	0	32724	
3178	0	32756	
3179	0	32797	
3180	0	32764	
3181	0	32809	
3182	0	32848	
3183	0	32788	
3184	0	32737	
3185	0	32776	
3186	0	32824	
3187	0	32860	
3188	0	32800	
3189	0	32712	
3190	0	32741	
3191	0	32788	
3192	0	32710	
3193	0	32800	
3194	0	32794	
3195	0	32861	
3196	0	32772	
3197	0	32780	
3198	0	32836	
3199	0	32790	
3200	0	32792	
3201	0	32924	
3202	0	32844	
3203	0	32744	
3204	0	32776	
3205	0	32752	
3206	0	32852	
3207	0	32824	
3208	0	32772	
3209	0	32688	
3210	0	32780	
3211	0	32868	
3212	0	32808	
3213	0	32745	
3214	0	32686	
3215	0	32788	
3216	0	32740	
3217	0	32736	
3218	0	32702	
3219	0	32784	
3220	0	32804	
3221	0	32736	
3222	0	32724	
3223	0	32764	
3224	0	32765	
3225	0	32756	
3226	0	32753	
3227	0	32732	
3228	0	32774	
3229	0	32716	
3230	0	32772	
3231	0	32792	
3232	0	32752	
3233	0	32796	
3234	0	32748	
3235	0	32836	
3236	0	32876	
3237	0	32828	
3238	0	32764	
3239	0	32860	
3240	0	32798	
3241	0	32764	
3242	0	32772	
3243	0	32808	
3244	0	32796	
3245	0	32792	
3246	0	32722	
3247	0	32808	
3248	0	32821	
3249	0	32798	
3250	0	32844	
3251	0	32800	
3252	0	32784	
3253	0	32800	
3254	0	32788	
3255	0	32737	
3256	0	32660	
3257	0	32764	
3258	0	32808	
3259	0	32680	
3260	0	32732	
3261	0	32792	
3262	0	32828	
3263	0	32824	
3264	0	32796	
3265	0	32828	
3266	0	32789	
3267	0	32784	
3268	0	32820	
3269	0	32856	
3270	0	32808	
3271	0	32862	
3272	0	32776	
3273	0	32708	
3274	0	32784	
3275	0	32704	
3276	0	32740	
3277	0	32732	
3278	0	32748	
3279	0	32736	
3280	0	32758	
3281	0	32824	
3282	0	32760	
3283	0	32768	
3284	0	32796	
3285	0	32820	
3286	0	32744	
3287	0	32856	
3288	0	32828	
3289	0	32740	
3290	0	32736	
3291	0	32720	
3292	0	32688	
3293	0	32776	
3294	0	32804	
3295	0	32820	
3296	0	32772	
3297	0	32752	
3298	0	32845	
3299	0	32760	
3300	0	32704	
3301	0	32776	
3302	0	33000	
3303	0	32860	
3304	0	32737	
3305	0	32740	
3306	0	32736	
3307	0	32749	
3308	0	32868	
3309	0	32829	
3310	0	32838	
3311	0	32780	
3312	0	32749	
3313	0	32760	
3314	0	32720	
3315	0	32752	
3316	0	32832	
3317	0	32856	
3318	0	32804	
3319	0	32796	
3320	0	32768	
3321	0	32724	
3322	0	32748	
3323	0	32796	
3324	0	32664	
3325	0	32824	
3326	0	32832	
3327	0	32772	
3328	0	32800	
3329	0	32828	
3330	0	32752	
3331	0	32716	
3332	0	32712	
3333	0	32724	
3334	0	32756	
3335	0	32738	
3336	0	32749	
3337	0	32697	
3338	0	32732	
3339	0	32792	
3340	0	32789	
3341	0	32904	
3342	0	32860	
3343	0	32852	
3344	0	32812	
3345	0	32740	
3346	0	32748	
3347	0	32732	
3348	0	32752	
3349	0	32792	
3350	0	32856	
3351	0	32785	
3352	0	32748	
3353	0	32704	
3354	0	32810	
3355	0	32788	
3356	0	32800	
3357	0	32740	
3358	0	32776	
3359	0	32734	
3360	0	32740	
3361	0	32740	
3362	0	32736	
3363	0	32793	
3364	0	32821	
3365	0	32761	
3366	0	32870	
3367	0	32824	
3368	0	32781	
3369	0	32828	
3370	0	32900	
3371	0	32836	
3372	0	32748	
3373	0	32860	
3374	0	32893	
3375	0	32832	
3376	0	32792	
3377	0	32772	
3378	0	32772	
3379	0	32752	
3380	0	32712	
3381	0	32644	
3382	0	32660	
3383	0	32636	
3384	0	32672	
3385	0	32824	
3386	0	32792	
3387	0	32756	
3388	0	32792	
3389	0	32836	
3390	0	32836	
3391	0	32848	
3392	0	32744	
3393	0	32728	
3394	0	32812	
3395	0	32724	
3396	0	32816	
3397	0	32788	
3398	0	32704	
3399	0	32664	
3400	0	32892	
3401	0	32920	
3402	0	32916	
3403	0	32868	
3404	0	32820	
3405	0	32880	
3406	0	32780	
3407	0	32624	
3408	0	32696	
3409	0	32716	
3410	0	32663	
3411	0	32646	
3412	0	32796	
3413	0	32876	
3414	0	32884	
3415	0	32800	
3416	0	32776	
3417	0	32768	
3418	0	32816	
3419	0	32820	
3420	0	32777	
3421	0	32756	
3422	0	32752	
3423	0	32764	
3424	0	32812	
3425	0	32752	
3426	0	32748	
3427	0	32820	
3428	0	32812	
3429	0	32804	
3430	0	32744	
3431	0	32784	
3432	0	32814	
3433	0	32880	
3434	0	32828	
3435	0	32736	
3436	0	32808	
3437	0	32732	
3438	0	32736	
3439	0	32764	
3440	0	32752	
3441	0	32708	
3442	0	32740	
3443	0	32804	
3444	0	32756	
3445	0	32748	
3446	0	32784	
3447	0	32756	
3448	0	32684	
3449	0	32716	
3450	0	32776	
3451	0	32732	
3452	0	32744	
3453	0	32772	
3454	0	32756	
3455	0	32812	
3456	0	32796	
3457	0	32848	
3458	0	32868	
3459	0	32928	
3460	0	32844	
3461	0	32836	
3462	0	32813	
3463	0	32834	
3464	0	32776	
3465	0	32792	
3466	0	32704	
3467	0	32717	
3468	0	32644	
3469	0	32684	
3470	0	32788	
3471	0	32766	
3472	0	32756	
3473	0	32728	
3474	0	32774	
3475	0	32880	
3476	0	32868	
3477	0	32781	
3478	0	32808	
3479	0	32780	
3480	0	32768	
3481	0	32688	
3482	0	32752	
3483	0	32728	
3484	0	32740	
3485	0	32808	
3486	0	32752	
3487	0	32736	
3488	0	32780	
3489	0	32732	
3490	0	32724	
3491	0	32696	
3492	0	32716	
3493	0	32740	
3494	0	32736	
3495	0	32768	
3496	0	32752	
3497	0	32996	
3498	0	33056	
3499	0	33028	
3500	0	32932	
3501	0	32956	
3502	0	32892	
3503	0	32800	
3504	0	32696	
3505	0	32696	
3506	0	32645	
3507	0	32711	
3508	0	32680	
3509	0	32780	
3510	0	32780	
3511	0	32836	
3512	0	32764	
3513	0	32752	
3514	0	32772	
3515	0	32772	
3516	0	32712	
3517	0	32794	
3518	0	32792	
3519	0	32884	
3520	0	32832	
3521	0	32800	
3522	0	32744	
3523	0	32820	
3524	0	32744	
3525	0	32789	
3526	0	32750	
3527	0	32796	
3528	0	32772	
3529	0	32760	
3530	0	32844	
3531	0	32788	
3532	0	32724	
3533	0	32708	
3534	0	32668	
3535	0	32752	
3536	0	32782	
3537	0	32872	
3538	0	32924	
3539	0	32912	
3540	0	32804	
3541	0	32804	
3542	0	32808	
3543	0	32808	
3544	0	32740	
3545	0	32784	
3546	0	32744	
3547	0	32748	
3548	0	32724	
3549	0	32824	
3550	0	32800	
3551	0	32796	
3552	0	32804	
3553	0	32796	
3554	0	32756	
3555	0	32696	
3556	0	32780	
3557	0	32812	
3558	0	32720	
3559	0	32712	
3560	0	32744	
3561	0	32824	
3562	0	32856	
3563	0	32812	
3564	0	32832	
3565	0	32781	
3566	0	32772	
3567	0	32792	
3568	0	32760	
3569	0	32732	
3570	0	32732	
3571	0	32744	
3572	0	32748	
3573	0	32768	
3574	0	32736	
3575	0	32800	
3576	0	32780	
3577	0	32772	
3578	0	32776	
3579	0	32772	
3580	0	32712	
3581	0	32864	
3582	0	32832	
3583	0	32816	
3584	0	32824	
3585	0	32776	
3586	0	32796	
3587	0	32756	
3588	0	32745	
3589	0	32800	
3590	0	32844	
3591	0	32780	
3592	0	32736	
3593	0	32804	
3594	0	32704	
3595	0	32768	
3596	0	32764	
3597	0	32728	
3598	0	32709	
3599	0	32648	
3600	0	32716	
3601	0	32776	
3602	0	32756	
3603	0	32824	
3604	0	32960	
3605	0	33004	
3606	0	32844	
3607	0	32740	
3608	0	32704	
3609	0	32676	
3610	0	32744	
3611	0	32760	
3612	0	32732	
3613	0	32732	
3614	0	32756	
3615	0	32775	
3616	0	32736	
3617	0	32804	
3618	0	32832	
3619	0	32740	
3620	0	32710	
3621	0	32701	
3622	0	32717	
3623	0	32760	
3624	0	32748	
3625	0	32816	
3626	0	32776	
3627	0	32824	
3628	0	32785	
3629	0	32836	
3630	0	32848	
3631	0	32856	
3632	0	32792	
3633	0	32768	
3634	0	32868	
3635	0	32734	
3636	0	32692	
3637	0	32772	
3638	0	32788	
3639	0	32772	
3640	0	32775	
3641	0	32741	
3642	0	32864	
3643	0	32740	
3644	0	32800	
3645	0	32744	
3646	0	32732	
3647	0	32748	
3648	0	32716	
3649	0	32788	
3650	0	32864	
3651	0	32869	
3652	0	32852	
3653	0	32852	
3654	0	32869	
3655	0	32828	
3656	0	32828	
3657	0	32740	
3658	0	32696	
3659	0	32728	
3660	0	32768	
3661	0	32676	
3662	0	32761	
3663	0	32735	
3664	0	32724	
3665	0	32800	
3666	0	32764	
3667	0	32744	
3668	0	32764	
3669	0	32852	
3670	0	32750	
3671	0	32788	
3672	0	32828	
3673	0	32848	
3674	0	32784	
3675	0	32768	
3676	0	32748	
3677	0	32744	
3678	0	32756	
3679	0	32832	
3680	0	32744	
3681	0	32824	
3682	0	32772	
3683	0	32804	
3684	0	32872	
3685	0	32862	
3686	0	32840	
3687	0	32800	
3688	0	32836	
3689	0	32804	
3690	0	32780	
3691	0	32800	
3692	0	32712	
3693	0	32676	
3694	0	32673	
3695	0	32732	
3696	0	32792	
3697	0	32792	
3698	0	32873	
3699	0	32736	
3700	0	32721	
3701	0	32840	
3702	0	32788	
3703	0	32800	
3704	0	32732	
3705	0	32748	
3706	0	32812	
3707	0	32853	
3708	0	32824	
3709	0	32704	
3710	0	32652	
3711	0	32788	
3712	0	32793	
3713	0	32778	
3714	0	32812	
3715	0	32900	
3716	0	32776	
3717	0	32784	
3718	0	32788	
3719	0	32748	
3720	0	32825	
3721	0	32760	
3722	0	32932	
3723	0	32820	
3724	0	32753	
3725	0	32764	
3726	0	32788	
3727	0	32744	
3728	0	32852	
3729	0	32752	
3730	0	32810	
3731	0	32768	
3732	0	32796	
3733	0	32740	
3734	0	32760	
3735	0	32648	
3736	0	32669	
3737	0	32648	
3738	0	32784	
3739	0	32820	
3740	0	32904	
3741	0	32856	
3742	0	32856	
3743	0	32800	
3744	0	32888	
3745	0	32953	
3746	0	32864	
3747	0	32780	
3748	0	32692	
3749	0	32640	
3750	0	32720	
3751	0	32788	
3752	0	32788	
3753	0	32700	
3754	0	32736	
3755	0	32745	
3756	0	32745	
3757	0	32705	
3758	0	32720	
3759	0	32780	
3760	0	32764	
3761	0	32776	
3762	0	32804	
3763	0	32892	
3764	0	32968	
3765	0	32904	
3766	0	32768	
3767	0	32728	
3768	0	32720	
3769	0	32682	
3770	0	32796	
3771	0	32820	
3772	0	32820	
3773	0	32865	
3774	0	32780	
3775	0	32806	
3776	0	32740	
3777	0	32758	
3778	0	32798	
3779	0	32772	
3780	0	32792	
3781	0	32826	
3782	0	32816	
3783	0	32772	
3784	0	32769	
3785	0	32713	
3786	0	32800	
3787	0	32804	
3788	0	32796	
3789	0	32796	
3790	0	32736	
3791	0	32736	
3792	0	32741	
3793	0	32772	
3794	0	32752	
3795	0	32824	
3796	0	32836	
3797	0	32692	
3798	0	32689	
3799	0	32824	
3800	0	32904	
3801	0	32740	
3802	0	32736	
3803	0	32780	
3804	0	32760	
3805	0	32788	
3806	0	32740	
3807	0	32684	
3808	0	32782	
3809	0	32758	
3810	0	32692	
3811	0	32722	
3812	0	32736	
3813	0	32852	
3814	0	32800	
3815	0	32766	
3816	0	32800	
3817	0	32824	
3818	0	32744	
3819	0	32764	
3820	0	32758	
3821	0	32805	
3822	0	32702	
3823	0	32708	
3824	0	32848	
3825	0	32928	
3826	0	32960	
3827	0	32836	
3828	0	32664	
3829	0	32748	
3830	0	32764	
3831	0	32772	
3832	0	32740	
3833	0	32796	
3834	0	32736	
3835	0	32740	
3836	0	32749	
3837	0	32796	
3838	0	32676	
3839	0	32716	
3840	0	32768	
3841	0	32796	
3842	0	32816	
3843	0	32804	
3844	0	32804	
3845	0	32780	
3846	0	32808	
3847	0	32837	
3848	0	32864	
3849	0	32816	
3850	0	32848	
3851	0	32784	
3852	0	32812	
3853	0	32782	
3854	0	32792	
3855	0	32745	
3856	0	32734	
3857	0	32825	
3858	0	32768	
3859	0	32740	
3860	0	32720	
3861	0	32732	
3862	0	32812	
3863	0	32744	
3864	0	32804	
3865	0	32760	
3866	0	32732	
3867	0	32769	
3868	0	32752	
3869	0	32849	
3870	0	32785	
3871	0	32796	
3872	0	32732	
3873	0	32728	
3874	0	32740	
3875	0	32769	
3876	0	32745	
3877	0	32756	
3878	0	32780	
3879	0	32844	
3880	0	32936	
3881	0	32860	
3882	0	32768	
3883	0	32808	
3884	0	32772	
3885	0	32740	
3886	0	32728	
3887	0	32728	
3888	0	32877	
3889	0	32800	
3890	0	32708	
3891	0	32740	
3892	0	32688	
3893	0	32728	
3894	0	32748	
3895	0	32744	
3896	0	32796	
3897	0	32740	
3898	0	32832	
3899	0	32840	
3900	0	32905	
3901	0	32804	
3902	0	32726	
3903	0	32824	
3904	0	32772	
3905	0	32780	
3906	0	32768	
3907	0	32844	
3908	0	32804	
3909	0	32860	
3910	0	32784	
3911	0	32668	
3912	0	32624	
3913	0	32684	
3914	0	32775	
3915	0	32776	
3916	0	32720	
3917	0	32744	
3918	0	32801	
3919	0	32744	
3920	0	32836	
3921	0	32764	
3922	0	32797	
3923	0	32868	
3924	0	32840	
3925	0	32758	
3926	0	32852	
3927	0	32804	
3928	0	32756	
3929	0	32624	
3930	0	32728	
3931	0	32824	
3932	0	32861	
3933	0	32780	
3934	0	32780	
3935	0	32776	
3936	0	32780	
3937	0	32776	
3938	0	32786	
3939	0	32732	
3940	0	32720	
3941	0	32800	
3942	0	32852	
3943	0	32860	
3944	0	32860	
3945	0	32772	
3946	0	32736	
3947	0	32764	
3948	0	32712	
3949	0	32828	
3950	0	32708	
3951	0	32684	
3952	0	32768	
3953	0	32760	
3954	0	32728	
3955	0	32814	
3956	0	32748	
3957	0	32808	
3958	0	32812	
3959	0	32792	
3960	0	32784	
3961	0	32768	
3962	0	32716	
3963	0	32712	
3964	0	32820	
3965	0	32824	
3966	0	32804	
3967	0	32792	
3968	0	32792	
3969	0	32900	
3970	0	32820	
3971	0	32812	
3972	0	32744	
3973	0	32708	
3974	0	32792	
3975	0	32776	
3976	0	32752	
3977	0	32624	
3978	0	32756	
3979	0	32774	
3980	0	32716	
3981	0	32797	
3982	0	32869	
3983	0	32904	
3984	0	32884	
3985	0	32848	
3986	0	32740	
3987	0	32680	
3988	0	32656	
3989	0	32704	
3990	0	32704	
3991	0	32796	
3992	0	32809	
3993	0	32740	
3994	0	32732	
3995	0	32848	
3996	0	32784	
3997	0	32772	
3998	0	32708	
3999	0	32796	
4000	0	32756	
4001	0	32834	
4002	0	32944	
4003	0	32936	
4004	0	32812	
4005	0	32676	
4006	0	32696	
4007	0	32704	
4008	0	32696	
4009	0	32736	
4010	0	32712	
4011	0	32784	
4012	0	32844	
4013	0	32772	
4014	0	32824	
4015	0	32870	
4016	0	32796	
4017	0	32816	
4018	0	32804	
4019	0	32748	
4020	0	32728	
4021	0	32725	
4022	0	32748	
4023	0	32816	
4024	0	32756	
4025	0	32752	
4026	0	32788	
4027	0	32757	
4028	0	32796	
4029	0	32784	
4030	0	32804	
4031	0	32761	
4032	0	32788	
4033	0	32762	
4034	0	32868	
4035	0	32880	
4036	0	32748	
4037	0	32808	
4038	0	32742	
4039	0	32620	
4040	0	32677	
4041	0	32704	
4042	0	32804	
4043	0	32820	
4044	0	32872	
4045	0	32820	
4046	0	32836	
4047	0	32932	
4048	0	32808	
4049	0	32772	
4050	0	32792	
4051	0	32740	
4052	0	32784	
4053	0	32744	
4054	0	32720	
4055	0	32748	
4056	0	32768	
4057	0	32808	
4058	0	32820	
4059	0	32816	
4060	0	32780	
4061	0	32820	
4062	0	32768	
4063	0	32775	
4064	0	32792	
4065	0	32716	
4066	0	32772	
4067	0	32744	
4068	0	32778	
4069	0	32748	
4070	0	32770	
4071	0	32724	
4072	0	32688	
4073	0	32805	
4074	0	32776	
4075	0	32852	
4076	0	32868	
4077	0	32900	
4078	0	32884	
4079	0	32877	
4080	0	32757	
4081	0	32760	
4082	0	32765	
4083	0	32775	
4084	0	32740	
4085	0	32736	
4086	0	32856	
4087	0	32800	
4088	0	32741	
4089	0	32724	
4090	0	32765	
4091	0	32712	
4092	0	32720	
4093	0	32728	
4094	0	32824	
4095	0	32804	
4096	0	32832	
4097	0	32808	
4098	0	32836	
4099	0	32808	
4100	0	32792	
4101	0	32832	
4102	0	32749	
4103	0	32744	
4104	0	32844	
4105	0	32792	
4106	0	32780	
4107	0	32784	
4108	0	32744	
4109	0	32740	
4110	0	32712	
4111	0	32773	
4112	0	32900	
4113	0	32800	
4114	0	32688	
4115	0	32688	
4116	0	32716	
4117	0	32760	
4118	0	32820	
4119	0	32784	
4120	0	32820	
4121	0	32756	
4122	0	32716	
4123	0	32804	
4124	0	32724	
4125	0	32748	
4126	0	32780	
4127	0	32804	
4128	0	32720	
4129	0	32844	
4130	0	32832	
4131	0	32840	
4132	0	32800	
4133	0	32728	
4134	0	32608	
4135	0	32760	
4136	0	32824	
4137	0	32848	
4138	0	32784	
4139	0	32854	
4140	0	32822	
4141	0	32792	
4142	0	32824	
4143	0	32833	
4144	0	32792	
4145	0	32800	
4146	0	32730	
4147	0	32764	
4148	0	32728	
4149	0	32720	
4150	0	32760	
4151	0	32788	
4152	0	32848	
4153	0	32760	
4154	0	32884	
4155	0	32736	
4156	0	32732	
4157	0	32752	
4158	0	32816	
4159	0	32692	
4160	0	32736	
4161	0	32832	
4162	0	32800	
4163	0	32748	
4164	0	32796	
4165	0	32765	
4166	0	32772	
4167	0	32820	
4168	0	32804	
4169	0	32780	
4170	0	32808	
4171	0	32704	
4172	0	32696	
4173	0	32808	
4174	0	32836	
4175	0	32844	
4176	0	32828	
4177	0	32776	
4178	0	32805	
4179	0	32846	
4180	0	32824	
4181	0	32796	
4182	0	32836	
4183	0	32812	
4184	0	32824	
4185	0	32768	
4186	0	32800	
4187	0	32761	
4188	0	32810	
4189	0	32728	
4190	0	32727	
4191	0	32840	
4192	0	32748	
4193	0	32712	
4194	0	32700	
4195	0	32708	
4196	0	32844	
4197	0	32788	
4198	0	32837	
4199	0	32792	
4200	0	32757	
4201	0	32752	
4202	0	32736	
4203	0	32704	
4204	0	32745	
4205	0	32800	
4206	0	32840	
4207	0	32744	
4208	0	32788	
4209	0	32796	
4210	0	32796	
4211	0	32785	
4212	0	32820	
4213	0	32820	
4214	0	32846	
4215	0	32782	
4216	0	32736	
4217	0	32808	
4218	0	32772	
4219	0	32756	
4220	0	32813	
4221	0	32752	
4222	0	32740	
4223	0	32725	
4224	0	32752	
4225	0	32716	
4226	0	32696	
4227	0	32868	
4228	0	32872	
4229	0	32976	
4230	0	32854	
4231	0	32796	
4232	0	32728	
4233	0	32712	
4234	0	32702	
4235	0	32729	
4236	0	32720	
4237	0	32820	
4238	0	32768	
4239	0	32692	
4240	0	32704	
4241	0	32888	
4242	0	32824	
4243	0	32840	
4244	0	32888	
4245	0	32768	
4246	0	32748	
4247	0	32832	
4248	0	32736	
4249	0	32796	
4250	0	32792	
4251	0	32768	
4252	0	32768	
4253	0	32788	
4254	0	32792	
4255	0	32760	
4256	0	32744	
4257	0	32814	
4258	0	32740	
4259	0	32816	
4260	0	32732	
4261	0	32844	
4262	0	32772	
4263	0	32768	
4264	0	32836	
4265	0	32740	
4266	0	32741	
4267	0	32764	
4268	0	32784	
4269	0	32776	
4270	0	32808	
4271	0	32746	
4272	0	32804	
4273	0	32756	
4274	0	32836	
4275	0	32740	
4276	0	32729	
4277	0	32785	
4278	0	32782	
4279	0	32698	
4280	0	32816	
4281	0	32744	
4282	0	32757	
4283	0	32784	
4284	0	32804	
4285	0	32740	
4286	0	32816	
4287	0	32748	
4288	0	32756	
4289	0	32760	
4290	0	32740	
4291	0	32848	
4292	0	32848	
4293	0	32848	
4294	0	32852	
4295	0	32776	
4296	0	32736	
4297	0	32716	
4298	0	32756	
4299	0	32788	
4300	0	32660	
4301	0	32780	
4302	0	32696	
4303	0	32708	
4304	0	32752	
4305	0	32758	
4306	0	32724	
4307	0	32782	
4308	0	32788	
4309	0	32844	
4310	0	32801	
4311	0	32812	
4312	0	32824	
4313	0	33053	
4314	0	32940	
4315	0	32748	
4316	0	32644	
4317	0	32568	
4318	0	32721	
4319	0	32720	
4320	0	32742	
4321	0	32720	
4322	0	32783	
4323	0	32860	
4324	0	32900	
4325	0	32892	
4326	0	32800	
4327	0	32828	
4328	0	32788	
4329	0	32776	
4330	0	32709	
4331	0	32724	
4332	0	32734	
4333	0	32756	
4334	0	32700	
4335	0	32784	
4336	0	32724	
4337	0	32795	
4338	0	32788	
4339	0	32822	
4340	0	32840	
4341	0	32809	
4342	0	32808	
4343	0	32812	
4344	0	32792	
4345	0	32772	
4346	0	32804	
4347	0	32793	
4348	0	32780	
4349	0	32764	
4350	0	32772	
4351	0	32772	
4352	0	32764	
4353	0	32704	
4354	0	32833	
4355	0	32826	
4356	0	32790	
4357	0	32820	
4358	0	32804	
4359	0	32728	
4360	0	32788	
4361	0	32860	
4362	0	32885	
4363	0	32784	
4364	0	32740	
4365	0	32750	
4366	0	32712	
4367	0	32676	
4368	0	32752	
4369	0	32768	
4370	0	32789	
4371	0	32816	
4372	0	32784	
4373	0	32768	
4374	0	32808	
4375	0	32760	
4376	0	32665	
4377	0	32692	
4378	0	32789	
4379	0	32772	
4380	0	32801	
4381	0	32788	
4382	0	32798	
4383	0	32841	
4384	0	32864	
4385	0	32732	
4386	0	32740	
4387	0	32785	
4388	0	32752	
4389	0	32740	
4390	0	32792	
4391	0	32844	
4392	0	32749	
4393	0	32728	
4394	0	32804	
4395	0	32796	
4396	0	32760	
4397	0	32877	
4398	0	32856	
4399	0	32868	
4400	0	32732	
4401	0	32704	
4402	0	32716	
4403	0	32772	
4404	0	32716	
4405	0	32728	
4406	0	32812	
4407	0	32852	
4408	0	32764	
4409	0	32760	
4410	0	32784	
4411	0	32737	
4412	0	32788	
4413	0	32752	
4414	0	32800	
4415	0	32752	
4416	0	32772	
4417	0	32652	
4418	0	32760	
4419	0	32800	
4420	0	32824	
4421	0	32844	
4422	0	32884	
4423	0	32844	
4424	0	32856	
4425	0	32756	
4426	0	32712	
4427	0	32736	
4428	0	32724	
4429	0	32749	
4430	0	32717	
4431	0	32732	
4432	0	32796	
4433	0	32820	
4434	0	32772	
4435	0	32944	
4436	0	33064	
4437	0	32912	
4438	0	32668	
4439	0	32680	
4440	0	32640	
4441	0	32736	
4442	0	32720	
4443	0	32864	
4444	0	32792	
4445	0	32672	
4446	0	32698	
4447	0	32777	
4448	0	32892	
4449	0	32912	
4450	0	32789	
4451	0	32792	
4452	0	32684	
4453	0	32708	
4454	0	32676	
4455	0	32768	
4456	0	32800	
4457	0	32768	
4458	0	32768	
4459	0	32768	
4460	0	32832	
4461	0	32840	
4462	0	32844	
4463	0	32820	
4464	0	32740	
4465	0	32808	
4466	0	32852	
4467	0	32741	
4468	0	32830	
4469	0	32868	
4470	0	32822	
4471	0	32776	
4472	0	32720	
4473	0	32748	
4474	0	32772	
4475	0	32781	
4476	0	32704	
4477	0	32760	
4478	0	32724	
4479	0	32729	
4480	0	32816	
4481	0	32736	
4482	0	32788	
4483	0	32790	
4484	0	32812	
4485	0	32772	
4486	0	32772	
4487	0	32736	
4488	0	32892	
4489	0	32856	
4490	0	32748	
4491	0	32724	
4492	0	32773	
4493	0	32752	
4494	0	32776	
4495	0	32724	
4496	0	32752	
4497	0	32808	
4498	0	32768	
4499	0	32816	
4500	0	32812	
4501	0	32768	
4502	0	32760	
4503	0	32780	
4504	0	32748	
4505	0	32840	
4506	0	32788	
4507	0	32756	
4508	0	32764	
4509	0	32740	
4510	0	32776	
4511	0	32952	
4512	0	32828	
4513	0	32828	
4514	0	32760	
4515	0	32732	
4516	0	32756	
4517	0	32772	
4518	0	32872	
4519	0	32744	
4520	0	32784	
4521	0	32696	
4522	0	32781	
4523	0	32760	
4524	0	32736	
4525	0	32730	
4526	0	32776	
4527	0	32800	
4528	0	32842	
4529	0	32792	
4530	0	32768	
4531	0	32828	
4532	0	32784	
4533	0	32740	
4534	0	32788	
4535	0	32788	
4536	0	32784	
4537	0	32884	
4538	0	32808	
4539	0	32824	
4540	0	32782	
4541	0	32772	
4542	0	32780	
4543	0	32832	
4544	0	32804	
4545	0	32737	
4546	0	32660	
4547	0	32692	
4548	0	32644	
4549	0	32720	
4550	0	32712	
4551	0	32750	
4552	0	32804	
4553	0	32802	
4554	0	32812	
4555	0	32796	
4556	0	32812	
4557	0	32820	
4558	0	32892	
4559	0	32792	
4560	0	32732	
4561	0	32732	
4562	0	32789	
4563	0	32812	
4564	0	32776	
4565	0	32776	
4566	0	32736	
4567	0	32830	
4568	0	32832	
4569	0	32789	
4570	0	32768	
4571	0	32692	
4572	0	32653	
4573	0	32764	
4574	0	32824	
4575	0	32872	
4576	0	32844	
4577	0	32772	
4578	0	32728	
4579	0	32816	
4580	0	32782	
4581	0	32868	
4582	0	32848	
4583	0	32840	
4584	0	32704	
4585	0	32760	
4586	0	32856	
4587	0	32824	
4588	0	32796	
4589	0	32740	
4590	0	32748	
4591	0	32784	
4592	0	32732	
4593	0	32728	
4594	0	32732	
4595	0	32769	
4596	0	32708	
4597	0	32826	
4598	0	32868	
4599	0	32858	
4600	0	32776	
4601	0	32800	
4602	0	32790	
4603	0	32790	
4604	0	32760	
4605	0	32760	
4606	0	32735	
4607	0	32720	
4608	0	32784	
4609	0	32852	
4610	0	32836	
4611	0	32697	
4612	0	32708	
4613	0	32761	
4614	0	32756	
4615	0	32820	
4616	0	32768	
4617	0	32820	
4618	0	32952	
4619	0	32868	
4620	0	32669	
4621	0	32756	
4622	0	32764	
4623	0	32712	
4624	0	32662	
4625	0	32796	
4626	0	32820	
4627	0	32756	
4628	0	32746	
4629	0	32784	
4630	0	32768	
4631	0	32732	
4632	0	32756	
4633	0	32694	
4634	0	32872	
4635	0	32852	
4636	0	32833	
4637	0	32768	
4638	0	32742	
4639	0	32756	
4640	0	32764	
4641	0	32778	
4642	0	32748	
4643	0	32756	
4644	0	32764	
4645	0	32784	
4646	0	32758	
4647	0	32824	
4648	0	32772	
4649	0	32764	
4650	0	32792	
4651	0	32812	
4652	0	32806	
4653	0	32804	
4654	0	32816	
4655	0	32732	
4656	0	32792	
4657	0	32828	
4658	0	32788	
4659	0	32792	
4660	0	32780	
4661	0	32680	
4662	0	32796	
4663	0	32812	
4664	0	32868	
4665	0	32756	
4666	0	32716	
4667	0	32776	
4668	0	32752	
4669	0	32809	
4670	0	32800	
4671	0	32772	
4672	0	32760	
4673	0	32828	
4674	0	32748	
4675	0	32836	
4676	0	32768	
4677	0	32772	
4678	0	32764	
4679	0	32621	
4680	0	32688	
4681	0	32712	
4682	0	32698	
4683	0	32728	
4684	0	32782	
4685	0	32788	
4686	0	32708	
4687	0	32737	
4688	0	32710	
4689	0	32705	
4690	0	32820	
4691	0	32820	
4692	0	32900	
4693	0	32796	
4694	0	32812	
4695	0	32836	
4696	0	32836	
4697	0	32813	
4698	0	32900	
4699	0	32936	
4700	0	32848	
4701	0	32916	
4702	0	32837	
4703	0	32784	
4704	0	32736	
4705	0	32748	
4706	0	32808	
4707	0	32744	
4708	0	32780	
4709	0	32692	
4710	0	32668	
4711	0	32712	
4712	0	32758	
4713	0	32720	
4714	0	32720	
4715	0	32802	
4716	0	32796	
4717	0	32844	
4718	0	32818	
4719	0	32860	
4720	0	32920	
4721	0	32873	
4722	0	32804	
4723	0	32752	
4724	0	32704	
4725	0	32700	
4726	0	32696	
4727	0	32716	
4728	0	32768	
4729	0	32860	
4730	0	32860	
4731	0	32784	
4732	0	32776	
4733	0	32832	
4734	0	32760	
4735	0	32776	
4736	0	32768	
4737	0	32736	
4738	0	32680	
4739	0	32760	
4740	0	32788	
4741	0	32796	
4742	0	32792	
4743	0	32736	
4744	0	32744	
4745	0	32788	
4746	0	32780	
4747	0	32777	
4748	0	32720	
4749	0	32740	
4750	0	32704	
4751	0	32724	
4752	0	32757	
4753	0	32796	
4754	0	32808	
4755	0	32872	
4756	0	32813	
4757	0	32790	
4758	0	32869	
4759	0	33040	
4760	0	32960	
4761	0	32696	
4762	0	32660	
4763	0	32772	
4764	0	32860	
4765	0	32733	
4766	0	32740	
4767	0	32752	
4768	0	32728	
4769	0	32744	
4770	0	32748	
4771	0	32732	
4772	0	32748	
4773	0	32760	
4774	0	32736	
4775	0	32760	
4776	0	32792	
4777	0	32766	
4778	0	32798	
4779	0	32792	
4780	0	32828	
4781	0	32784	
4782	0	32824	
4783	0	32844	
4784	0	32815	
4785	0	32792	
4786	0	32808	
4787	0	32796	
4788	0	32772	
4789	0	32788	
4790	0	32768	
4791	0	32713	
4792	0	32752	
4793	0	32729	
4794	0	32736	
4795	0	32764	
4796	0	32732	
4797	0	32784	
4798	0	32788	
4799	0	32836	
4800	0	32844	
4801	0	32824	
4802	0	32768	
4803	0	32794	
4804	0	32784	
4805	0	32752	
4806	0	32804	
4807	0	32808	
4808	0	32760	
4809	0	32764	
4810	0	32766	
4811	0	32760	
4812	0	32733	
4813	0	32764	
4814	0	32736	
4815	0	32832	
4816	0	32788	
4817	0	32837	
4818	0	32776	
4819	0	32860	
4820	0	32764	
4821	0	32700	
4822	0	32736	
4823	0	32760	
4824	0	32725	
4825	0	32696	
4826	0	32688	
4827	0	32832	
4828	0	32908	
4829	0	32900	
4830	0	32868	
4831	0	32880	
4832	0	32852	
4833	0	32920	
4834	0	32820	
4835	0	32724	
4836	0	32668	
4837	0	32664	
4838	0	32676	
4839	0	32652	
4840	0	32756	
4841	0	32748	
4842	0	32794	
4843	0	32780	
4844	0	32700	
4845	0	32780	
4846	0	32783	
4847	0	32800	
4848	0	32748	
4849	0	32724	
4850	0	32888	
4851	0	32892	
4852	0	32860	
4853	0	32816	
4854	0	32868	
4855	0	32808	
4856	0	32696	
4857	0	32696	
4858	0	32760	
4859	0	32776	
4860	0	32789	
4861	0	32796	
4862	0	32736	
4863	0	32640	
4864	0	32732	
4865	0	32792	
4866	0	32800	
4867	0	32768	
4868	0	32785	
4869	0	32757	
4870	0	32774	
4871	0	32762	
4872	0	32800	
4873	0	32828	
4874	0	32808	
4875	0	32800	
4876	0	32764	
4877	0	32744	
4878	0	32744	
4879	0	32812	
4880	0	32708	
4881	0	32756	
4882	0	32784	
4883	0	32853	
4884	0	32820	
4885	0	32802	
4886	0	32766	
4887	0	32836	
4888	0	32757	
4889	0	32761	
4890	0	32792	
4891	0	32696	
4892	0	32756	
4893	0	32832	
4894	0	32788	
4895	0	32808	
4896	0	32740	
4897	0	32760	
4898	0	32708	
4899	0	32736	
4900	0	32832	
4901	0	32768	
4902	0	32728	
4903	0	32844	
4904	0	32800	
4905	0	32840	
4906	0	32865	
4907	0	32836	
4908	0	32838	
4909	0	32816	
4910	0	32740	
4911	0	32736	
4912	0	32712	
4913	0	32720	
4914	0	32776	
4915	0	32780	
4916	0	32782	
4917	0	32856	
4918	0	32846	
4919	0	32840	
4920	0	32776	
4921	0	32792	
4922	0	32732	
4923	0	32766	
4924	0	32733	
4925	0	32740	
4926	0	32760	
4927	0	32740	
4928	0	32764	
4929	0	32769	
4930	0	32836	
4931	0	32900	
4932	0	32796	
4933	0	32716	
4934	0	32726	
4935	0	32792	
4936	0	32741	
4937	0	32753	
4938	0	32816	
4939	0	32764	
4940	0	32764	
4941	0	32820	
4942	0	32760	
4943	0	32744	
4944	0	32792	
4945	0	32857	
4946	0	32800	
4947	0	32800	
4948	0	32764	
4949	0	32804	
4950	0	32748	
4951	0	32804	
4952	0	32752	
4953	0	32789	
4954	0	32760	
4955	0	32736	
4956	0	32696	
4957	0	32757	
4958	0	32776	
4959	0	32760	
4960	0	32809	
4961	0	32764	
4962	0	32768	
4963	0	32824	
4964	0	32812	
4965	0	32724	
4966	0	32788	
4967	0	32748	
4968	0	32820	
4969	0	32744	
4970	0	32813	
4971	0	32760	
4972	0	32792	
4973	0	32812	
4974	0	32816	
4975	0	32732	
4976	0	32712	
4977	0	32688	
4978	0	32772	
4979	0	32844	
4980	0	32780	
4981	0	32837	
4982	0	32792	
4983	0	32732	
4984	0	32760	
4985	0	32792	
4986	0	32740	
4987	0	32884	
4988	0	32884	
4989	0	32814	
4990	0	32844	
4991	0	32760	
4992	0	32724	
4993	0	32668	
4994	0	32772	
4995	0	32792	
4996	0	32794	
4997	0	32748	
4998	0	32792	
4999	0	32776	
5000	0	32780	
5001	0	32808	
5002	0	32792	
5003	0	32800	
5004	0	32740	
5005	0	32796	
5006	0	32752	
5007	0	32814	
5008	0	32768	
5009	0	32736	
5010	0	32748	
5011	0	32712	
5012	0	32849	
5013	0	32716	
5014	0	32732	
5015	0	32892	
5016	0	32844	
5017	0	32808	
5018	0	32752	
5019	0	32804	
5020	0	32820	
5021	0	32868	
5022	0	32804	
5023	0	32861	
5024	0	32816	
5025	0	32688	
5026	0	32728	
5027	0	32740	
5028	0	32764	
5029	0	32736	
5030	0	32800	
5031	0	32764	
5032	0	32781	
5033	0	32756	
5034	0	32716	
5035	0	32808	
5036	0	32840	
5037	0	32776	
5038	0	32750	
5039	0	32784	
5040	0	32832	
5041	0	32812	
5042	0	32840	
5043	0	32848	
5044	0	32776	
5045	0	32800	
5046	0	32748	
5047	0	32756	
5048	0	32832	
5049	0	32732	
5050	0	32753	
5051	0	32834	
5052	0	32796	
5053	0	32844	
5054	0	32841	
5055	0	32748	
5056	0	32788	
5057	0	32720	
5058	0	32741	
5059	0	32692	
5060	0	32762	
5061	0	32792	
5062	0	32708	
5063	0	32784	
5064	0	32762	
5065	0	32772	
5066	0	32736	
5067	0	32740	
5068	0	32740	
5069	0	32692	
5070	0	32788	
5071	0	32764	
5072	0	32724	
5073	0	32788	
5074	0	32853	
5075	0	32902	
5076	0	32876	
5077	0	32804	
5078	0	32880	
5079	0	32847	
5080	0	32792	
5081	0	32753	
5082	0	32692	
5083	0	32712	
5084	0	32756	
5085	0	32820	
5086	0	32692	
5087	0	32756	
5088	0	32792	
5089	0	32756	
5090	0	32820	
5091	0	32812	
5092	0	32784	
5093	0	32744	
5094	0	32832	
5095	0	32844	
5096	0	32832	
5097	0	32904	
5098	0	32832	
5099	0	32784	
5100	0	32784	
5101	0	32752	
5102	0	32689	
5103	0	32720	
5104	0	32764	
5105	0	32812	
5106	0	32868	
5107	0	32752	
5108	0	32724	
5109	0	32700	
5110	0	32748	
5111	0	32776	
5112	0	32700	
5113	0	32740	
5114	0	32780	
5115	0	32884	
5116	0	32812	
5117	0	32844	
5118	0	32861	
5119	0	32876	
5120	0	32836	
5121	0	32968	
5122	0	32956	
5123	0	32772	
5124	0	32708	
5125	0	32728	
5126	0	32640	
5127	0	32760	
5128	0	32736	
5129	0	32732	
5130	0	32728	
5131	0	32712	
5132	0	32740	
5133	0	32740	
5134	0	32752	
5135	0	32720	
5136	0	32740	
5137	0	32790	
5138	0	32696	
5139	0	32716	
5140	0	32820	
5141	0	32832	
5142	0	32796	
5143	0	32856	
5144	0	32844	
5145	0	32856	
5146	0	32780	
5147	0	32768	
5148	0	32736	
5149	0	32668	
5150	0	32728	
5151	0	32756	
5152	0	32756	
5153	0	32724	
5154	0	32828	
5155	0	32820	
5156	0	32852	
5157	0	32856	
5158	0	32868	
5159	0	32836	
5160	0	32838	
5161	0	32864	
5162	0	32808	
5163	0	32788	
5164	0	32732	
5165	0	32804	
5166	0	32766	
5167	0	32796	
5168	0	32808	
5169	0	32728	
5170	0	32788	
5171	0	32736	
5172	0	32796	
5173	0	32776	
5174	0	32812	
5175	0	32812	
5176	0	32772	
5177	0	32724	
5178	0	32772	
5179	0	32772	
5180	0	32741	
5181	0	32757	
5182	0	32804	
5183	0	32781	
5184	0	32732	
5185	0	32737	
5186	0	32746	
5187	0	32748	
5188	0	32828	
5189	0	32772	
5190	0	32744	
5191	0	32760	
5192	0	32830	
5193	0	32808	
5194	0	32852	
5195	0	32852	
5196	0	32846	
5197	0	32752	
5198	0	32744	
5199	0	32808	
5200	0	32832	
5201	0	32790	
5202	0	32756	
5203	0	32628	
5204	0	32684	
5205	0	32742	
5206	0	32780	
5207	0	32794	
5208	0	32781	
5209	0	32769	
5210	0	32860	
5211	0	32788	
5212	0	32726	
5213	0	32801	
5214	0	32816	
5215	0	32840	
5216	0	32756	
5217	0	32804	
5218	0	32809	
5219	0	32828	
5220	0	32860	
5221	0	32800	
5222	0	32724	
5223	0	32756	
5224	0	32762	
5225	0	32804	
5226	0	32792	
5227	0	32833	
5228	0	32732	
5229	0	32764	
5230	0	32700	
5231	0	32792	
5232	0	32796	
5233	0	32776	
5234	0	32788	
5235	0	32740	
5236	0	32752	
5237	0	32777	
5238	0	32764	
5239	0	32756	
5240	0	32796	
5241	0	32800	
5242	0	32700	
5243	0	32776	
5244	0	32740	
5245	0	32812	
5246	0	32804	
5247	0	32776	
5248	0	32788	
5249	0	32768	
5250	0	32812	
5251	0	32744	
5252	0	32766	
5253	0	32732	
5254	0	32732	
5255	0	32724	
5256	0	32798	
5257	0	32872	
5258	0	32876	
5259	0	32788	
5260	0	32804	
5261	0	32740	
5262	0	32772	
5263	0	32758	
5264	0	32752	
5265	0	32812	
5266	0	32752	
5267	0	32768	
5268	0	32796	
5269	0	32792	
5270	0	32793	
5271	0	32780	
5272	0	32820	
5273	0	32797	
5274	0	32808	
5275	0	32756	
5276	0	32741	
5277	0	32804	
5278	0	32844	
5279	0	32780	
5280	0	32780	
5281	0	32740	
5282	0	32764	
5283	0	32800	
5284	0	32782	
5285	0	32780	
5286	0	32728	
5287	0	32756	
5288	0	32792	
5289	0	32848	
5290	0	32754	
5291	0	32768	
5292	0	32721	
5293	0	32776	
5294	0	32812	
5295	0	32756	
5296	0	32832	
5297	0	32897	
5298	0	32901	
5299	0	32752	
5300	0	32716	
5301	0	32584	
5302	0	32720	
5303	0	32820	
5304	0	32856	
5305	0	32736	
5306	0	32808	
5307	0	32776	
5308	0	32768	
5309	0	32668	
5310	0	32804	
5311	0	32824	
5312	0	32728	
5313	0	32772	
5314	0	32756	
5315	0	32917	
5316	0	32900	
5317	0	32908	
5318	0	32806	
5319	0	32788	
5320	0	32804	
5321	0	32728	
5322	0	32844	
5323	0	32848	
5324	0	32700	
5325	0	32688	
5326	0	32852	
5327	0	32740	
5328	0	32788	
5329	0	32716	
5330	0	32801	
5331	0	32852	
5332	0	32760	
5333	0	32736	
5334	0	32644	
5335	0	32728	
5336	0	32748	
5337	0	32780	
5338	0	32812	
5339	0	32820	
5340	0	32798	
5341	0	32688	
5342	0	32812	
5343	0	32780	
5344	0	32748	
5345	0	32824	
5346	0	32740	
5347	0	32760	
5348	0	32792	
5349	0	32760	
5350	0	32836	
5351	0	32856	
5352	0	32864	
5353	0	32804	
5354	0	32772	
5355	0	32888	
5356	0	32812	
5357	0	32836	
5358	0	32832	
5359	0	32796	
5360	0	32764	
5361	0	32704	
5362	0	32760	
5363	0	32716	
5364	0	32836	
5365	0	32800	
5366	0	32752	
5367	0	32700	
5368	0	32824	
5369	0	32740	
5370	0	32758	
5371	0	32748	
5372	0	32784	
5373	0	32744	
5374	0	32709	
5375	0	32796	
5376	0	32792	
5377	0	32745	
5378	0	32796	
5379	0	32814	
5380	0	32832	
5381	0	32824	
5382	0	32748	
5383	0	32692	
5384	0	32716	
5385	0	32740	
5386	0	32776	
5387	0	32844	
5388	0	32828	
5389	0	32836	
5390	0	32804	
5391	0	32786	
5392	0	32718	
5393	0	32788	
5394	0	32814	
5395	0	32804	
5396	0	32840	
5397	0	32908	
5398	0	32672	
5399	0	32708	
5400	0	32668	
5401	0	32692	
5402	0	32832	
5403	0	32760	
5404	0	32737	
5405	0	32812	
5406	0	32812	
5407	0	32776	
5408	0	32824	
5409	0	32896	
5410	0	32813	
5411	0	32809	
5412	0	32776	
5413	0	32709	
5414	0	32748	
5415	0	32760	
5416	0	32812	
5417	0	32824	
5418	0	32769	
5419	0	32808	
5420	0	32852	
5421	0	32788	
5422	0	32768	
5423	0	32784	
5424	0	32724	
5425	0	32804	
5426	0	32784	
5427	0	32726	
5428	0	32788	
5429	0	32756	
5430	0	32812	
5431	0	32810	
5432	0	32801	
5433	0	32796	
5434	0	32782	
5435	0	32792	
5436	0	32756	
5437	0	32780	
5438	0	32737	
5439	0	32752	
5440	0	32800	
5441	0	32728	
5442	0	32792	
5443	0	32765	
5444	0	32696	
5445	0	32808	
5446	0	32848	
5447	0	32808	
5448	0	32832	
5449	0	32720	
5450	0	32716	
5451	0	32764	
5452	0	32764	
5453	0	32780	
5454	0	32810	
5455	0	32824	
5456	0	32784	
5457	0	32800	
5458	0	32800	
5459	0	32740	
5460	0	32792	
5461	0	32780	
5462	0	32752	
5463	0	32748	
5464	0	32742	
5465	0	32780	
5466	0	32708	
5467	0	32680	
5468	0	32800	
5469	0	32660	
5470	0	32692	
5471	0	32677	
5472	0	32784	
5473	0	32836	
5474	0	32844	
5475	0	32880	
5476	0	32836	
5477	0	32900	
5478	0	32838	
5479	0	32832	
5480	0	32877	
5481	0	32884	
5482	0	33028	
5483	0	33008	
5484	0	32940	
5485	0	32793	
5486	0	32704	
5487	0	32676	
5488	0	32678	
5489	0	32656	
5490	0	32460	
5491	0	32488	
5492	0	32740	
5493	0	32728	
5494	0	32764	
5495	0	32708	
5496	0	32720	
5497	0	32712	
5498	0	32748	
5499	0	32696	
5500	0	32708	
5501	0	32876	
5502	0	33052	
5503	0	33212	
5504	0	33096	
5505	0	33068	
5506	0	33220	
5507	0	33028	
5508	0	33013	
5509	0	32896	
5510	0	32644	
5511	0	32320	
5512	0	32400	
5513	0	32676	
5514	0	32912	
5515	0	33264	
5516	0	33424	
5517	0	33396	
5518	0	33316	
5519	0	33564	
5520	0	33564	
5521	0	33118	
5522	0	32544	
5523	0	32268	
5524	0	31912	
5525	0	31837	
5526	0	31876	
5527	0	31564	
5528	0	31756	
5529	0	32200	
5530	0	32048	
5531	0	32557	
5532	0	32604	
5533	0	33024	
5534	0	33384	
5535	0	33176	
5536	0	33372	
5537	0	33964	
5538	0	34284	
5539	0	33512	
5540	0	32928	
5541	0	32944	
5542	0	32880	
5543	0	32320	
5544	0	31632	
5545	0	30877	
5546	0	31572	
5547	0	32616	
5548	0	32812	
5549	0	32652	
5550	0	32144	
5551	0	31632	
5552	0	31708	
5553	0	32572	
5554	0	33036	
5555	0	33536	
5556	0	33432	
5557	0	32660	
5558	0	32385	
5559	0	32032	
5560	0	31228	
5561	0	31840	
5562	0	32484	
5563	0	33048	
5564	0	33196	
5565	0	33360	
5566	0	33880	
5567	0	34212	
5568	0	33904	
5569	0	33568	
5570	0	33996	
5571	0	34456	
5572	0	34100	
5573	0	33572	
5574	0	32704	
5575	0	32605	
5576	0	32252	
5577	0	31672	
5578	0	31568	
5579	0	32172	
5580	0	32856	
5581	0	33676	
5582	0	34180	
5583	0	33420	
5584	0	32308	
5585	0	31128	
5586	0	31584	
5587	0	32052	
5588	0	31924	
5589	0	33526	
5590	0	35424	
5591	0	34820	
5592	0	34176	
5593	0	32728	
5594	0	31853	
5595	0	31684	
5596	0	31188	
5597	0	31246	
5598	0	32140	
5599	0	32540	
5600	0	32448	
5601	0	32766	
5602	0	32812	
5603	0	32472	
5604	0	32236	
5605	0	31908	
5606	0	31664	
5607	0	32301	
5608	0	32428	
5609	0	32264	
5610	0	31300	
5611	0	31804	
5612	0	32892	
5613	0	33544	
5614	0	33176	
5615	0	32464	
5616	0	32708	
5617	0	33973	
5618	0	35124	
5619	0	35600	
5620	0	35556	
5621	0	35072	
5622	0	34472	
5623	0	33664	
5624	0	33084	
5625	0	32600	
5626	0	31901	
5627	0	31680	
5628	0	31552	
5629	0	31256	
5630	0	30864	
5631	0	30556	
5632	0	31456	
5633	0	31961	
5634	0	32720	
5635	0	32929	
5636	0	32688	
5637	0	32680	
5638	0	33397	
5639	0	33533	
5640	0	32700	
5641	0	32580	
5642	0	33112	
5643	0	33540	
5644	0	33652	
5645	0	33624	
5646	0	33421	
5647	0	32984	
5648	0	32692	
5649	0	32388	
5650	0	32924	
5651	0	33608	
5652	0	35428	
5653	0	36532	
5654	0	36148	
5655	0	33380	
5656	0	30244	
5657	0	29256	
5658	0	29292	
5659	0	30336	
5660	0	32448	
5661	0	33932	
5662	0	33660	
5663	0	32832	
5664	0	32032	
5665	0	31500	
5666	0	32184	
5667	0	33528	
5668	0	33980	
5669	0	33648	
5670	0	33014	
5671	0	33016	
5672	0	32852	
5673	0	32704	
5674	0	32372	
5675	0	32100	
5676	0	31820	
5677	0	31860	
5678	0	31752	
5679	0	31500	
5680	0	31492	
5681	0	31512	
5682	0	31624	
5683	0	31688	
5684	0	32084	
5685	0	32904	
5686	0	33692	
5687	0	33968	
5688	0	34216	
5689	0	34512	
5690	0	34756	
5691	0	34540	
5692	0	34412	
5693	0	34016	
5694	0	33428	
5695	0	32900	
5696	0	32247	
5697	0	31576	
5698	0	31416	
5699	0	31077	
5700	0	30520	
5701	0	30189	
5702	0	30092	
5703	0	30592	
5704	0	31444	
5705	0	32204	
5706	0	32776	
5707	0	33132	
5708	0	33352	
5709	0	33753	
5710	0	34008	
5711	0	34044	
5712	0	34080	
5713	0	34016	
5714	0	33880	
5715	0	33872	
5716	0	33912	
5717	0	33620	
5718	0	33788	
5719	0	34236	
5720	0	34169	
5721	0	33884	
5722	0	33728	
5723	0	33436	
5724	0	33200	
5725	0	33680	
5726	0	33568	
5727	0	32718	
5728	0	32652	
5729	0	32788	
5730	0	32304	
5731	0	31932	
5732	0	31852	
5733	0	31924	
5734	0	32268	
5735	0	32188	
5736	0	31832	
5737	0	32164	
5738	0	32252	
5739	0	32288	
5740	0	32320	
5741	0	32284	
5742	0	32364	
5743	0	32450	
5744	0	32588	
5745	0	32676	
5746	0	32668	
5747	0	32684	
5748	0	32692	
5749	0	32836	
5750	0	32780	
5751	0	32684	
5752	0	32828	
5753	0	32918	
5754	0	33093	
5755	0	33048	
5756	0	33000	
5757	0	32921	
5758	0	32832	
5759	0	32856	
5760	0	32672	
5761	0	32676	
5762	0	32676	
5763	0	32668	
5764	0	32672	
5765	0	32780	
5766	0	32685	
5767	0	32696	
5768	0	32770	
5769	0	32836	
5770	0	32840	
5771	0	32860	
5772	0	32928	
5773	0	32928	
5774	0	32940	
5775	0	33036	
5776	0	33201	
5777	0	33132	
5778	0	32940	
5779	0	32652	
5780	0	32464	
5781	0	32448	
5782	0	32452	
5783	0	32384	
5784	0	32418	
5785	0	32664	
5786	0	32692	
5787	0	32774	
5788	0	32873	
5789	0	32780	
5790	0	32820	
5791	0	32744	
5792	0	32676	
5793	0	32740	
5794	0	32768	
5795	0	32852	
5796	0	32900	
5797	0	32868	
5798	0	32892	
5799	0	32921	
5800	0	32948	
5801	0	32940	
5802	0	32884	
5803	0	32834	
5804	0	32888	
5805	0	32836	
5806	0	32856	
5807	0	32816	
5808	0	32812	
5809	0	32885	
5810	0	32824	
5811	0	32828	
5812	0	32788	
5813	0	32681	
5814	0	32717	
5815	0	32781	
5816	0	32740	
5817	0	32736	
5818	0	32784	
5819	0	32752	
5820	0	32740	
5821	0	32792	
5822	0	32740	
5823	0	32752	
5824	0	32724	
5825	0	32788	
5826	0	32800	
5827	0	32792	
5828	0	32776	
5829	0	32712	
5830	0	32808	
5831	0	32768	
5832	0	32828	
5833	0	32804	
5834	0	32822	
5835	0	32724	
5836	0	32724	
5837	0	32700	
5838	0	32708	
5839	0	32808	
5840	0	32752	
5841	0	32824	
5842	0	32749	
5843	0	32800	
5844	0	32728	
5845	0	32796	
5846	0	32778	
5847	0	32830	
5848	0	32732	
5849	0	32740	
5850	0	32756	
5851	0	32780	
5852	0	32756	
5853	0	32744	
5854	0	32800	
5855	0	32732	
5856	0	32784	
5857	0	32760	
5858	0	32744	
5859	0	32764	
5860	0	32792	
5861	0	32820	
5862	0	32800	
5863	0	32776	
5864	0	32768	
5865	0	32768	
5866	0	32692	
5867	0	32700	
5868	0	32766	
5869	0	32772	
5870	0	32809	
5871	0	32897	
5872	0	32840	
5873	0	32844	
5874	0	32900	
5875	0	32876	
5876	0	32856	
5877	0	32820	
5878	0	32776	
5879	0	32628	
5880	0	32648	
5881	0	32700	
5882	0	32724	
5883	0	32788	
5884	0	32776	
5885	0	32808	
5886	0	32845	
5887	0	32840	
5888	0	32798	
5889	0	32780	
5890	0	32712	
5891	0	32768	
5892	0	32752	
5893	0	32724	
5894	0	32752	
5895	0	32656	
5896	0	32768	
5897	0	32652	
5898	0	32664	
5899	0	32716	
5900	0	32744	
5901	0	32796	
5902	0	32812	
5903	0	32852	
5904	0	33056	
5905	0	33152	
5906	0	32956	
5907	0	32741	
5908	0	32749	
5909	0	32809	
5910	0	32772	
5911	0	32750	
5912	0	32832	
5913	0	32774	
5914	0	32628	
5915	0	32740	
5916	0	32872	
5917	0	32744	
5918	0	32676	
5919	0	32628	
5920	0	32758	
5921	0	32732	
5922	0	32676	
5923	0	32700	
5924	0	32728	
5925	0	32812	
5926	0	32817	
5927	0	32820	
5928	0	32872	
5929	0	32812	
5930	0	32844	
5931	0	32840	
5932	0	32800	
5933	0	32776	
5934	0	32788	
5935	0	32716	
5936	0	32737	
5937	0	32760	
5938	0	32732	
5939	0	32724	
5940	0	32768	
5941	0	32732	
5942	0	32776	
5943	0	32804	
5944	0	32784	
5945	0	32760	
5946	0	32760	
5947	0	32780	
5948	0	32784	
5949	0	32774	
5950	0	32740	
5951	0	32740	
5952	0	32804	
5953	0	32764	
5954	0	32752	
5955	0	32808	
5956	0	32796	
5957	0	32788	
5958	0	32780	
5959	0	32800	
5960	0	32752	
5961	0	32776	
5962	0	32800	
5963	0	32840	
5964	0	32800	
5965	0	32784	
5966	0	32816	
5967	0	32800	
5968	0	32800	
5969	0	32884	
5970	0	32760	
5971	0	32800	
5972	0	32772	
5973	0	32784	
5974	0	32772	
5975	0	32768	
5976	0	32676	
5977	0	32716	
5978	0	32686	
5979	0	32736	
5980	0	32732	
5981	0	32728	
5982	0	32756	
5983	0	32816	
5984	0	32644	
5985	0	32681	
5986	0	33012	
5987	0	33112	
5988	0	33111	
5989	0	33224	
5990	0	32984	
5991	0	32540	
5992	0	32212	
5993	0	32421	
5994	0	32624	
5995	0	32680	
5996	0	32847	
5997	0	32772	
5998	0	32757	
5999	0	32800	
6000	0	32824	
6001	0	32813	
6002	0	32836	
6003	0	32896	
6004	0	32960	
6005	0	32868	
6006	0	32717	
6007	0	32640	
6008	0	32636	
6009	0	32805	
6010	0	32848	
6011	0	32749	
6012	0	32744	
6013	0	32687	
6014	0	32740	
6015	0	32736	
6016	0	32765	
6017	0	32796	
6018	0	32760	
6019	0	32836	
6020	0	32812	
6021	0	32784	
6022	0	32788	
6023	0	32792	
6024	0	32800	
6025	0	32832	
6026	0	32788	
6027	0	32776	
6028	0	32868	
6029	0	32840	
6030	0	32800	
6031	0	32760	
6032	0	32640	
6033	0	32704	
6034	0	32732	
6035	0	32822	
6036	0	32824	
6037	0	32834	
6038	0	32896	
6039	0	32830	
6040	0	32740	
6041	0	32816	
6042	0	32740	
6043	0	32705	
6044	0	32724	
6045	0	32828	
6046	0	32756	
6047	0	32756	
6048	0	32876	
6049	0	32740	
6050	0	32848	
6051	0	32788	
6052	0	32760	
6053	0	32708	
6054	0	32672	
6055	0	32708	
6056	0	32760	
6057	0	32717	
6058	0	32772	
6059	0	32824	
6060	0	32780	
6061	0	32836	
6062	0	32840	
6063	0	32920	
6064	0	32820	
6065	0	32760	
6066	0	32752	
6067	0	32772	
6068	0	32748	
6069	0	32680	
6070	0	32716	
6071	0	32780	
6072	0	32840	
6073	0	32764	
6074	0	32724	
6075	0	32768	
6076	0	32804	
6077	0	32732	
6078	0	32768	
6079	0	32720	
6080	0	32788	
6081	0	32784	
6082	0	32780	
6083	0	32808	
6084	0	32850	
6085	0	32852	
6086	0	32741	
6087	0	32557	
6088	0	32668	
6089	0	32928	
6090	0	32985	
6091	0	32908	
6092	0	32889	
6093	0	32870	
6094	0	32764	
6095	0	32652	
6096	0	32676	
6097	0	32652	
6098	0	32672	
6099	0	32684	
6100	0	32752	
6101	0	32824	
6102	0	32808	
6103	0	32740	
6104	0	32864	
6105	0	32776	
6106	0	32788	
6107	0	32841	
6108	0	32984	
6109	0	32940	
6110	0	32576	
6111	0	32476	
6112	0	32495	
6113	0	32644	
6114	0	32802	
6115	0	32790	
6116	0	32792	
6117	0	32796	
6118	0	32808	
6119	0	32768	
6120	0	32780	
6121	0	32820	
6122	0	32728	
6123	0	32740	
6124	0	32812	
6125	0	32840	
6126	0	32860	
6127	0	32884	
6128	0	32844	
6129	0	32868	
6130	0	32862	
6131	0	32928	
6132	0	32908	
6133	0	32737	
6134	0	32776	
6135	0	32748	
6136	0	32716	
6137	0	32805	
6138	0	32752	
6139	0	32724	
6140	0	32720	
6141	0	32752	
6142	0	32796	
6143	0	32790	
6144	0	32830	
6145	0	32812	
6146	0	32724	
6147	0	32736	
6148	0	32736	
6149	0	32808	
6150	0	32872	
6151	0	32832	
6152	0	32828	
6153	0	32784	
6154	0	32736	
6155	0	32684	
6156	0	32752	
6157	0	32748	
6158	0	32784	
6159	0	32848	
6160	0	32904	
6161	0	32868	
6162	0	32776	
6163	0	32853	
6164	0	32805	
6165	0	32776	
6166	0	32768	
6167	0	32720	
6168	0	32788	
6169	0	32780	
6170	0	32673	
6171	0	32672	
6172	0	32732	
6173	0	32800	
6174	0	32780	
6175	0	32676	
6176	0	32724	
6177	0	32784	
6178	0	32740	
6179	0	32676	
6180	0	32653	
6181	0	32968	
6182	0	33068	
6183	0	32968	
6184	0	32756	
6185	0	32900	
6186	0	32856	
6187	0	32684	
6188	0	32696	
6189	0	32704	
6190	0	32728	
6191	0	32660	
6192	0	32684	
6193	0	32796	
6194	0	32916	
6195	0	32856	
6196	0	32788	
6197	0	32804	
6198	0	32696	
6199	0	32708	
6200	0	32696	
6201	0	32724	
6202	0	32824	
6203	0	32812	
6204	0	32788	
6205	0	32772	
6206	0	32884	
6207	0	32860	
6208	0	32908	
6209	0	32752	
6210	0	32772	
6211	0	32756	
6212	0	32716	
6213	0	32700	
6214	0	32704	
6215	0	32744	
6216	0	32696	
6217	0	32824	
6218	0	32864	
6219	0	32809	
6220	0	32750	
6221	0	32804	
6222	0	32744	
6223	0	32908	
6224	0	32932	
6225	0	32832	
6226	0	32768	
6227	0	32644	
6228	0	32704	
6229	0	32836	
6230	0	32840	
6231	0	32884	
6232	0	32781	
6233	0	32736	
6234	0	32690	
6235	0	32820	
6236	0	32808	
6237	0	32852	
6238	0	32760	
6239	0	32716	
6240	0	32789	
6241	0	32780	
6242	0	32756	
6243	0	32700	
6244	0	32768	
6245	0	32869	
6246	0	32812	
6247	0	32840	
6248	0	32816	
6249	0	32760	
6250	0	32792	
6251	0	32812	
6252	0	32750	
6253	0	32800	
6254	0	32896	
6255	0	32768	
6256	0	32664	
6257	0	32696	
6258	0	32621	
6259	0	32740	
6260	0	32780	
6261	0	32864	
6262	0	32892	
6263	0	32792	
6264	0	32776	
6265	0	32804	
6266	0	32702	
6267	0	32926	
6268	0	32908	
6269	0	32908	
6270	0	32753	
6271	0	32764	
6272	0	32756	
6273	0	32704	
6274	0	32760	
6275	0	32724	
6276	0	32776	
6277	0	32825	
6278	0	32800	
6279	0	32724	
6280	0	32688	
6281	0	32617	
6282	0	32736	
6283	0	32812	
6284	0	32757	
6285	0	32788	
6286	0	32732	
6287	0	32796	
6288	0	32910	
6289	0	32680	
6290	0	32762	
6291	0	32824	
6292	0	32926	
6293	0	32852	
6294	0	32773	
6295	0	32752	
6296	0	32712	
6297	0	32792	
6298	0	32848	
6299	0	32753	
6300	0	32700	
6301	0	32684	
6302	0	32712	
6303	0	32726	
6304	0	32740	
6305	0	32792	
6306	0	32832	
6307	0	32892	
6308	0	32848	
6309	0	32892	
6310	0	32792	
6311	0	32812	
6312	0	32804	
6313	0	32828	
6314	0	32792	
6315	0	32805	
6316	0	32708	
6317	0	32744	
6318	0	32728	
6319	0	32764	
6320	0	32720	
6321	0	32800	
6322	0	32752	
6323	0	32800	
6324	0	32844	
6325	0	32836	
6326	0	32800	
6327	0	32776	
6328	0	32752	
6329	0	32718	
6330	0	32748	
6331	0	32730	
6332	0	32788	
6333	0	32836	
6334	0	32840	
6335	0	32864	
6336	0	32852	
6337	0	32868	
6338	0	32809	
6339	0	32760	
6340	0	32708	
6341	0	32740	
6342	0	32776	
6343	0	32728	
6344	0	32700	
6345	0	32800	
6346	0	32724	
6347	0	32792	
6348	0	32748	
6349	0	32744	
6350	0	32716	
6351	0	32724	
6352	0	32764	
6353	0	32749	
6354	0	32776	
6355	0	32852	
6356	0	32928	
6357	0	32868	
6358	0	32668	
6359	0	32680	
6360	0	32697	
6361	0	32900	
6362	0	32856	
6363	0	33008	
6364	0	32996	
6365	0	32796	
6366	0	32636	
6367	0	32572	
6368	0	32720	
6369	0	32796	
6370	0	32752	
6371	0	32756	
6372	0	32790	
6373	0	32804	
6374	0	32766	
6375	0	32630	
6376	0	32704	
6377	0	32784	
6378	0	32736	
6379	0	32704	
6380	0	32660	
6381	0	32624	
6382	0	32774	
6383	0	32948	
6384	0	33116	
6385	0	33008	
6386	0	32932	
6387	0	32844	
6388	0	32700	
6389	0	32742	
6390	0	32840	
6391	0	32736	
6392	0	32758	
6393	0	32784	
6394	0	32752	
6395	0	32736	
6396	0	32672	
6397	0	32764	
6398	0	32716	
6399	0	32776	
6400	0	32756	
6401	0	32828	
6402	0	32776	
6403	0	32840	
6404	0	32885	
6405	0	32724	
6406	0	32716	
6407	0	32745	
6408	0	32732	
6409	0	32749	
6410	0	32752	
6411	0	32860	
6412	0	32844	
6413	0	32800	
6414	0	32768	
6415	0	32717	
6416	0	32736	
6417	0	32768	
6418	0	32796	
6419	0	32757	
6420	0	32728	
6421	0	32868	
6422	0	32828	
6423	0	32788	
6424	0	32748	
6425	0	32796	
6426	0	32784	
6427	0	32764	
6428	0	32832	
6429	0	32796	
6430	0	32820	
6431	0	32780	
6432	0	32764	
6433	0	32736	
6434	0	32764	
6435	0	32708	
6436	0	32704	
6437	0	32748	
6438	0	32768	
6439	0	32780	
6440	0	32773	
6441	0	32784	
6442	0	32652	
6443	0	32656	
6444	0	32753	
6445	0	32756	
6446	0	32660	
6447	0	32596	
6448	0	32688	
6449	0	32684	
6450	0	32752	
6451	0	32892	
6452	0	32884	
6453	0	32932	
6454	0	32972	
6455	0	32904	
6456	0	32908	
6457	0	32904	
6458	0	32777	
6459	0	32812	
6460	0	32872	
6461	0	32756	
6462	0	32774	
6463	0	32712	
6464	0	32704	
6465	0	32856	
6466	0	32740	
6467	0	32776	
6468	0	32704	
6469	0	32696	
6470	0	32700	
6471	0	32789	
6472	0	32916	
6473	0	32916	
6474	0	32796	
6475	0	32757	
6476	0	32720	
6477	0	32700	
6478	0	32672	
6479	0	32820	
6480	0	32840	
6481	0	32745	
6482	0	32656	
6483	0	32840	
6484	0	32880	
6485	0	32876	
6486	0	32724	
6487	0	32752	
6488	0	32844	
6489	0	32788	
6490	0	32756	
6491	0	32752	
6492	0	32724	
6493	0	32672	
6494	0	32800	
6495	0	32840	
6496	0	32692	
6497	0	32772	
6498	0	32752	
6499	0	32789	
6500	0	32804	
6501	0	32732	
6502	0	32700	
6503	0	32732	
6504	0	32824	
6505	0	32814	
6506	0	32834	
6507	0	32781	
6508	0	32760	
6509	0	32756	
6510	0	32745	
6511	0	32716	
6512	0	32756	
6513	0	32748	
6514	0	32788	
6515	0	32800	
6516	0	32752	
6517	0	32728	
6518	0	32804	
6519	0	32908	
6520	0	32846	
6521	0	32736	
6522	0	32780	
6523	0	32792	
6524	0	32766	
6525	0	32840	
6526	0	32900	
6527	0	32784	
6528	0	32876	
6529	0	32792	
6530	0	32785	
6531	0	32800	
6532	0	32736	
6533	0	32737	
6534	0	32757	
6535	0	32880	
6536	0	32776	
6537	0	32762	
6538	0	32724	
6539	0	32764	
6540	0	32784	
6541	0	32828	
6542	0	32820	
6543	0	32768	
6544	0	32720	
6545	0	32756	
6546	0	32744	
6547	0	32736	
6548	0	32712	
6549	0	32772	
6550	0	32760	
6551	0	32625	
6552	0	32660	
6553	0	32720	
6554	0	32776	
6555	0	32848	
6556	0	32888	
6557	0	32801	
6558	0	32725	
6559	0	32728	
6560	0	32726	
6561	0	32832	
6562	0	32844	
6563	0	32916	
6564	0	32960	
6565	0	32720	
6566	0	32632	
6567	0	32548	
6568	0	32716	
6569	0	32804	
6570	0	32796	
6571	0	32776	
6572	0	32916	
6573	0	32876	
6574	0	32800	
6575	0	32788	
6576	0	32804	
6577	0	32800	
6578	0	32828	
6579	0	32832	
6580	0	32780	
6581	0	32736	
6582	0	32580	
6583	0	32668	
6584	0	32734	
6585	0	32788	
6586	0	32676	
6587	0	32804	
6588	0	32816	
6589	0	32708	
6590	0	32788	
6591	0	32788	
6592	0	32780	
6593	0	32840	
6594	0	32756	
6595	0	32792	
6596	0	32820	
6597	0	32804	
6598	0	32804	
6599	0	32785	
6600	0	32760	
6601	0	32768	
6602	0	32740	
6603	0	32793	
6604	0	32837	
6605	0	32793	
6606	0	32769	
6607	0	32712	
6608	0	32776	
6609	0	32880	
6610	0	32820	
6611	0	32772	
6612	0	32756	
6613	0	32712	
6614	0	32848	
6615	0	32809	
6616	0	32669	
6617	0	32701	
6618	0	32721	
6619	0	32736	
6620	0	32760	
6621	0	32744	
6622	0	32736	
6623	0	32772	
6624	0	32728	
6625	0	32668	
6626	0	32792	
6627	0	32805	
6628	0	32996	
6629	0	33008	
6630	0	33008	
6631	0	32976	
6632	0	32788	
6633	0	32689	
6634	0	32648	
6635	0	32728	
6636	0	32812	
6637	0	32748	
6638	0	32560	
6639	0	32605	
6640	0	32796	
6641	0	32744	
6642	0	32836	
6643	0	32812	
6644	0	32692	
6645	0	32544	
6646	0	32660	
6647	0	32740	
6648	0	32800	
6649	0	32812	
6650	0	32868	
6651	0	32876	
6652	0	32913	
6653	0	32820	
6654	0	32820	
6655	0	32884	
6656	0	32770	
6657	0	32696	
6658	0	32752	
6659	0	32836	
6660	0	32788	
6661	0	32764	
6662	0	32840	
6663	0	32788	
6664	0	32792	
6665	0	32736	
6666	0	32750	
6667	0	32848	
6668	0	32796	
6669	0	32741	
6670	0	32716	
6671	0	32768	
6672	0	32800	
6673	0	32840	
6674	0	32800	
6675	0	32721	
6676	0	32740	
6677	0	32768	
6678	0	32780	
6679	0	32804	
6680	0	32768	
6681	0	32784	
6682	0	32753	
6683	0	32796	
6684	0	32832	
6685	0	32852	
6686	0	32760	
6687	0	32768	
6688	0	32824	
6689	0	32784	
6690	0	32740	
6691	0	32746	
6692	0	32789	
6693	0	32776	
6694	0	32768	
6695	0	32756	
6696	0	32736	
6697	0	32696	
6698	0	32760	
6699	0	32740	
6700	0	32748	
6701	0	32808	
6702	0	32832	
6703	0	32788	
6704	0	32864	
6705	0	32888	
6706	0	32888	
6707	0	32836	
6708	0	32812	
6709	0	32836	
6710	0	32628	
6711	0	32752	
6712	0	32816	
6713	0	32889	
6714	0	32892	
6715	0	32816	
6716	0	32712	
6717	0	32892	
6718	0	32856	
6719	0	32677	
6720	0	32672	
6721	0	32625	
6722	0	32704	
6723	0	32788	
6724	0	32866	
6725	0	32736	
6726	0	32728	
6727	0	32784	
6728	0	32721	
6729	0	32724	
6730	0	32756	
6731	0	32821	
6732	0	32840	
6733	0	32860	
6734	0	32896	
6735	0	32800	
6736	0	32757	
6737	0	32744	
6738	0	32760	
6739	0	32740	
6740	0	32740	
6741	0	32704	
6742	0	32724	
6743	0	32752	
6744	0	32792	
6745	0	32852	
6746	0	32804	
6747	0	32684	
6748	0	32704	
6749	0	32844	
6750	0	32824	
6751	0	32824	
6752	0	32808	
6753	0	32728	
6754	0	32808	
6755	0	32928	
6756	0	32828	
6757	0	32732	
6758	0	32784	
6759	0	32714	
6760	0	32768	
6761	0	32748	
6762	0	32796	
6763	0	32804	
6764	0	32764	
6765	0	32826	
6766	0	32788	
6767	0	32756	
6768	0	32640	
6769	0	32742	
6770	0	32796	
6771	0	32740	
6772	0	32756	
6773	0	32780	
6774	0	32800	
6775	0	32756	
6776	0	32788	
6777	0	32794	
6778	0	32732	
6779	0	32744	
6780	0	32764	
6781	0	32704	
6782	0	32704	
6783	0	32892	
6784	0	32836	
6785	0	32744	
6786	0	32832	
6787	0	32782	
6788	0	32740	
6789	0	32756	
6790	0	32777	
6791	0	32694	
6792	0	32756	
6793	0	32936	
6794	0	32904	
6795	0	32836	
6796	0	32784	
6797	0	32736	
6798	0	32684	
6799	0	32732	
6800	0	32860	
6801	0	32748	
6802	0	32868	
6803	0	32808	
6804	0	32824	
6805	0	32660	
6806	0	32703	
6807	0	32804	
6808	0	32865	
6809	0	32876	
6810	0	32768	
6811	0	32676	
6812	0	32705	
6813	0	32896	
6814	0	32920	
6815	0	32884	
6816	0	32832	
6817	0	32676	
6818	0	32780	
6819	0	32712	
6820	0	32758	
6821	0	32768	
6822	0	32732	
6823	0	32734	
6824	0	32672	
6825	0	32740	
6826	0	32740	
6827	0	32716	
6828	0	32820	
6829	0	32748	
6830	0	32732	
6831	0	32764	
6832	0	32768	
6833	0	32776	
6834	0	32762	
6835	0	32878	
6836	0	32833	
6837	0	32708	
6838	0	32684	
6839	0	32668	
6840	0	32768	
6841	0	32860	
6842	0	32880	
6843	0	32792	
6844	0	32764	
6845	0	32792	
6846	0	32756	
6847	0	32712	
6848	0	32768	
6849	0	32793	
6850	0	32800	
6851	0	32796	
6852	0	32832	
6853	0	32756	
6854	0	32750	
6855	0	32768	
6856	0	32808	
6857	0	32832	
6858	0	32932	
6859	0	32964	
6860	0	32748	
6861	0	32620	
6862	0	32672	
6863	0	32688	
6864	0	32708	
6865	0	32756	
6866	0	32784	
6867	0	32932	
6868	0	32932	
6869	0	33044	
6870	0	32824	
6871	0	32800	
6872	0	32818	
6873	0	32712	
6874	0	32592	
6875	0	32676	
6876	0	32860	
6877	0	32924	
6878	0	32852	
6879	0	32780	
6880	0	32768	
6881	0	32648	
6882	0	32724	
6883	0	32908	
6884	0	32823	
6885	0	32724	
6886	0	32744	
6887	0	32708	
6888	0	32820	
6889	0	32716	
6890	0	32800	
6891	0	32932	
6892	0	32871	
6893	0	32828	
6894	0	32740	
6895	0	32614	
6896	0	32624	
6897	0	32709	
6898	0	32768	
6899	0	32781	
6900	0	32776	
6901	0	32676	
6902	0	32804	
6903	0	32808	
6904	0	32856	
6905	0	32828	
6906	0	32772	
6907	0	32820	
6908	0	32854	
6909	0	32754	
6910	0	32760	
6911	0	32740	
6912	0	32826	
6913	0	32788	
6914	0	32828	
6915	0	32796	
6916	0	32832	
6917	0	32704	
6918	0	32688	
6919	0	32672	
6920	0	32768	
6921	0	32784	
6922	0	32766	
6923	0	32828	
6924	0	32813	
6925	0	32792	
6926	0	32824	
6927	0	32761	
6928	0	32804	
6929	0	32752	
6930	0	32728	
6931	0	32736	
6932	0	32740	
6933	0	32732	
6934	0	32804	
6935	0	32858	
6936	0	32888	
6937	0	32960	
6938	0	32928	
6939	0	32804	
6940	0	32784	
6941	0	32740	
6942	0	32748	
6943	0	32776	
6944	0	32760	
6945	0	32748	
6946	0	32732	
6947	0	32804	
6948	0	32736	
6949	0	32734	
6950	0	32864	
6951	0	32800	
6952	0	32709	
6953	0	32644	
6954	0	32660	
6955	0	32792	
6956	0	32712	
6957	0	32797	
6958	0	33028	
6959	0	32892	
6960	0	32724	
6961	0	32616	
6962	0	32724	
6963	0	32832	
6964	0	32768	
6965	0	32712	
6966	0	32836	
6967	0	32889	
6968	0	32893	
6969	0	32896	
6970	0	32824	
6971	0	32853	
6972	0	32828	
6973	0	32840	
6974	0	32796	
6975	0	32784	
6976	0	32684	
6977	0	32756	
6978	0	32717	
6979	0	32692	
6980	0	32740	
6981	0	32704	
6982	0	32676	
6983	0	32676	
6984	0	32676	
6985	0	32716	
6986	0	32752	
6987	0	32792	
6988	0	32764	
6989	0	32756	
6990	0	32824	
6991	0	32844	
6992	0	32804	
6993	0	32796	
6994	0	32716	
6995	0	32848	
6996	0	32844	
6997	0	32856	
6998	0	32800	
6999	0	32788	
7000	0	32712	
7001	0	32692	
7002	0	32758	
7003	0	32753	
7004	0	32776	
7005	0	32832	
7006	0	32832	
7007	0	32832	
7008	0	32761	
7009	0	32812	
7010	0	32705	
7011	0	32780	
7012	0	32756	
7013	0	32708	
7014	0	32716	
7015	0	32836	
7016	0	32862	
7017	0	32872	
7018	0	32856	
7019	0	32812	
7020	0	32857	
7021	0	32780	
7022	0	32760	
7023	0	32712	
7024	0	32724	
7025	0	32804	
7026	0	32776	
7027	0	32784	
7028	0	32732	
7029	0	32756	
7030	0	32852	
7031	0	32932	
7032	0	32829	
7033	0	32797	
7034	0	32740	
7035	0	32664	
7036	0	32620	
7037	0	32704	
7038	0	32704	
7039	0	32702	
7040	0	32824	
7041	0	32900	
7042	0	32812	
7043	0	32954	
7044	0	32988	
7045	0	32800	
7046	0	32696	
7047	0	32740	
7048	0	32696	
7049	0	32728	
7050	0	32838	
7051	0	32828	
7052	0	32760	
7053	0	32720	
7054	0	32756	
7055	0	32869	
7056	0	32804	
7057	0	32720	
7058	0	32696	
7059	0	32797	
7060	0	32748	
7061	0	32788	
7062	0	32812	
7063	0	32792	
7064	0	32844	
7065	0	32788	
7066	0	32628	
7067	0	32736	
7068	0	32833	
7069	0	32842	
7070	0	32873	
7071	0	32821	
7072	0	32716	
7073	0	32600	
7074	0	32753	
7075	0	32864	
7076	0	32816	
7077	0	32774	
7078	0	32824	
7079	0	32808	
7080	0	32801	
7081	0	32748	
7082	0	32647	
7083	0	32725	
7084	0	32696	
7085	0	32740	
7086	0	32888	
7087	0	32913	
7088	0	32788	
7089	0	32744	
7090	0	32784	
7091	0	32724	
7092	0	32784	
7093	0	32800	
7094	0	32820	
7095	0	32848	
7096	0	32820	
7097	0	32772	
7098	0	32756	
7099	0	32804	
7100	0	32828	
7101	0	32778	
7102	0	32752	
7103	0	32780	
7104	0	32760	
7105	0	32728	
7106	0	32788	
7107	0	32748	
7108	0	32792	
7109	0	32740	
7110	0	32775	
7111	0	32836	
7112	0	32716	
7113	0	32716	
7114	0	32844	
7115	0	32808	
7116	0	32696	
7117	0	32808	
7118	0	32800	
7119	0	32784	
7120	0	32764	
7121	0	32760	
7122	0	32820	
7123	0	32876	
7124	0	32780	
7125	0	32824	
7126	0	32852	
7127	0	32841	
7128	0	32764	
7129	0	32839	
7130	0	32928	
7131	0	32840	
7132	0	32776	
7133	0	32792	
7134	0	32752	
7135	0	32732	
7136	0	32700	
7137	0	32696	
7138	0	32652	
7139	0	32684	
7140	0	32660	
7141	0	32708	
7142	0	32960	
7143	0	32948	
7144	0	32830	
7145	0	32720	
7146	0	32736	
7147	0	32696	
7148	0	32720	
7149	0	32804	
7150	0	32944	
7151	0	32848	
7152	0	32852	
7153	0	32728	
7154	0	32720	
7155	0	32764	
7156	0	32824	
7157	0	32804	
7158	0	32738	
7159	0	32702	
7160	0	32716	
7161	0	32768	
7162	0	32718	
7163	0	32692	
7164	0	32794	
7165	0	32804	
7166	0	32788	
7167	0	32796	
7168	0	32808	
7169	0	32780	
7170	0	32772	
7171	0	32832	
7172	0	32772	
7173	0	32816	
7174	0	32796	
7175	0	32772	
7176	0	32664	
7177	0	32664	
7178	0	32733	
7179	0	32772	
7180	0	32884	
7181	0	32792	
7182	0	32860	
7183	0	32760	
7184	0	32688	
7185	0	32696	
7186	0	32796	
7187	0	32820	
7188	0	32854	
7189	0	32820	
7190	0	32792	
7191	0	32692	
7192	0	32705	
7193	0	32716	
7194	0	32782	
7195	0	32736	
7196	0	32824	
7197	0	32832	
7198	0	32964	
7199	0	32860	
7200	0	32752	
7201	0	32762	
7202	0	32696	
7203	0	32724	
7204	0	32828	
7205	0	32892	
7206	0	32844	
7207	0	32756	
7208	0	32752	
7209	0	32821	
7210	0	32908	
7211	0	32804	
7212	0	32692	
7213	0	32696	
7214	0	32788	
7215	0	32780	
7216	0	32876	
7217	0	32868	
7218	0	32764	
7219	0	32768	
7220	0	32500	
7221	0	32724	
7222	0	32876	
7223	0	32760	
7224	0	32769	
7225	0	32820	
7226	0	32908	
7227	0	32879	
7228	0	32808	
7229	0	32980	
7230	0	32800	
7231	0	32624	
7232	0	32672	
7233	0	32624	
7234	0	32684	
7235	0	32800	
7236	0	32820	
7237	0	32764	
7238	0	32720	
7239	0	32716	
7240	0	32860	
7241	0	32948	
7242	0	32836	
7243	0	32756	
7244	0	32804	
7245	0	32736	
7246	0	32728	
7247	0	32796	
7248	0	32782	
7249	0	32780	
7250	0	32728	
7251	0	32772	
7252	0	32788	
7253	0	32788	
7254	0	32848	
7255	0	32800	
7256	0	32772	
7257	0	32748	
7258	0	32768	
7259	0	32784	
7260	0	32758	
7261	0	32780	
7262	0	32773	
7263	0	32716	
7264	0	32804	
7265	0	32784	
7266	0	32816	
7267	0	32840	
7268	0	32884	
7269	0	32832	
7270	0	32772	
7271	0	32740	
7272	0	32776	
7273	0	32764	
7274	0	32809	
7275	0	32768	
7276	0	32796	
7277	0	32741	
7278	0	32790	
7279	0	32740	
7280	0	32704	
7281	0	32684	
7282	0	32728	
7283	0	32798	
7284	0	32808	
7285	0	32704	
7286	0	32812	
7287	0	32832	
7288	0	32772	
7289	0	32837	
7290	0	32772	
7291	0	32766	
7292	0	32788	
7293	0	32796	
7294	0	32824	
7295	0	32744	
7296	0	32864	
7297	0	32814	
7298	0	32711	
7299	0	32640	
7300	0	32712	
7301	0	32884	
7302	0	32892	
7303	0	32760	
7304	0	32904	
7305	0	32768	
7306	0	32832	
7307	0	32712	
7308	0	32878	
7309	0	32796	
7310	0	32752	
7311	0	32748	
7312	0	32824	
7313	0	32856	
7314	0	32793	
7315	0	32823	
7316	0	32853	
7317	0	32804	
7318	0	32608	
7319	0	32520	
7320	0	32576	
7321	0	32749	
7322	0	32780	
7323	0	32812	
7324	0	32817	
7325	0	32886	
7326	0	32964	
7327	0	32872	
7328	0	32778	
7329	0	32740	
7330	0	32652	
7331	0	32616	
7332	0	32808	
7333	0	32864	
7334	0	32860	
7335	0	32704	
7336	0	32661	
7337	0	32788	
7338	0	32888	
7339	0	32848	
7340	0	32820	
7341	0	32852	
7342	0	32792	
7343	0	32756	
7344	0	32780	
7345	0	32844	
7346	0	32825	
7347	0	32768	
7348	0	32720	
7349	0	32720	
7350	0	32748	
7351	0	32700	
7352	0	32717	
7353	0	32804	
7354	0	32680	
7355	0	32757	
7356	0	32796	
7357	0	32870	
7358	0	32832	
7359	0	32804	
7360	0	32780	
7361	0	32840	
7362	0	32877	
7363	0	32797	
7364	0	32724	
7365	0	32720	
7366	0	32778	
7367	0	32757	
7368	0	32856	
7369	0	32848	
7370	0	32824	
7371	0	32732	
7372	0	32708	
7373	0	32796	
7374	0	32806	
7375	0	32796	
7376	0	32812	
7377	0	32816	
7378	0	32724	
7379	0	32716	
7380	0	32772	
7381	0	32752	
7382	0	32856	
7383	0	32878	
7384	0	32788	
7385	0	32726	
7386	0	32816	
7387	0	32796	
7388	0	32708	
7389	0	32796	
7390	0	32777	
7391	0	32836	
7392	0	32796	
7393	0	32760	
7394	0	32869	
7395	0	32824	
7396	0	32840	
7397	0	32796	
7398	0	32796	
7399	0	32728	
7400	0	32700	
7401	0	32737	
7402	0	32772	
7403	0	32812	
7404	0	32797	
7405	0	32824	
7406	0	32884	
7407	0	32796	
7408	0	32740	
7409	0	32760	
7410	0	32744	
7411	0	32884	
7412	0	32872	
7413	0	32746	
7414	0	32532	
7415	0	32576	
7416	0	32708	
7417	0	32692	
7418	0	32860	
7419	0	32880	
7420	0	32776	
7421	0	32728	
7422	0	32704	
7423	0	32613	
7424	0	32656	
7425	0	32800	
7426	0	32918	
7427	0	32952	
7428	0	32805	
7429	0	32772	
7430	0	32774	
7431	0	32744	
7432	0	32765	
7433	0	32856	
7434	0	32708	
7435	0	32796	
7436	0	32728	
7437	0	32724	
7438	0	32813	
7439	0	32812	
7440	0	32696	
7441	0	32732	
7442	0	32828	
7443	0	32798	
7444	0	32864	
7445	0	32928	
7446	0	32900	
7447	0	32861	
7448	0	32760	
7449	0	32732	
7450	0	32764	
7451	0	32718	
7452	0	32710	
7453	0	32762	
7454	0	32776	
7455	0	32780	
7456	0	32770	
7457	0	32844	
7458	0	32776	
7459	0	32832	
7460	0	32832	
7461	0	32816	
7462	0	32836	
7463	0	32760	
7464	0	32716	
7465	0	32692	
7466	0	32780	
7467	0	32828	
7468	0	32788	
7469	0	32728	
7470	0	32700	
7471	0	32720	
7472	0	32764	
7473	0	32752	
7474	0	32688	
7475	0	32724	
7476	0	32820	
7477	0	32860	
7478	0	32816	
7479	0	32860	
7480	0	33007	
7481	0	32924	
7482	0	32774	
7483	0	32708	
7484	0	32700	
7485	0	32676	
7486	0	32680	
7487	0	32700	
7488	0	32760	
7489	0	32840	
7490	0	32844	
7491	0	32889	
7492	0	32860	
7493	0	32844	
7494	0	32736	
7495	0	32758	
7496	0	32704	
7497	0	32740	
7498	0	32656	
7499	0	32748	
7500	0	32760	
7501	0	32808	
7502	0	32836	
7503	0	32936	
7504	0	32900	
7505	0	32888	
7506	0	32900	
7507	0	32780	
7508	0	32720	
7509	0	32700	
7510	0	32790	
7511	0	32792	
7512	0	32697	
7513	0	32596	
7514	0	32629	
7515	0	32712	
7516	0	32780	
7517	0	32760	
7518	0	32848	
7519	0	32926	
7520	0	32680	
7521	0	32728	
7522	0	32752	
7523	0	32754	
7524	0	32750	
7525	0	32790	
7526	0	32828	
7527	0	32780	
7528	0	32829	
7529	0	32854	
7530	0	32820	
7531	0	32733	
7532	0	32800	
7533	0	32770	
7534	0	32804	
7535	0	32752	
7536	0	32748	
7537	0	32856	
7538	0	32756	
7539	0	32748	
7540	0	32820	
7541	0	32756	
7542	0	32780	
7543	0	32788	
7544	0	32796	
7545	0	32756	
7546	0	32800	
7547	0	32768	
7548	0	32844	
7549	0	32732	
7550	0	32756	
7551	0	32846	
7552	0	32824	
7553	0	32776	
7554	0	32796	
7555	0	32792	
7556	0	32804	
7557	0	32808	
7558	0	32720	
7559	0	32740	
7560	0	32712	
7561	0	32724	
7562	0	32784	
7563	0	32756	
7564	0	32916	
7565	0	32820	
7566	0	32942	
7567	0	32848	
7568	0	32896	
7569	0	32720	
7570	0	32648	
7571	0	32652	
7572	0	32728	
7573	0	32740	
7574	0	32724	
7575	0	32988	
7576	0	33016	
7577	0	32796	
7578	0	32768	
7579	0	32700	
7580	0	32556	
7581	0	32680	
7582	0	32656	
7583	0	32652	
7584	0	32688	
7585	0	32808	
7586	0	32972	
7587	0	32868	
7588	0	32968	
7589	0	32932	
7590	0	32800	
7591	0	32708	
7592	0	32697	
7593	0	32664	
7594	0	32752	
7595	0	32812	
7596	0	32776	
7597	0	32724	
7598	0	32812	
7599	0	32784	
7600	0	32816	
7601	0	32836	
7602	0	32704	
7603	0	32668	
7604	0	32656	
7605	0	32700	
7606	0	32972	
7607	0	32964	
7608	0	32812	
7609	0	32688	
7610	0	32764	
7611	0	32776	
7612	0	32844	
7613	0	32724	
7614	0	32670	
7615	0	32764	
7616	0	32728	
7617	0	32742	
7618	0	32784	
7619	0	32716	
7620	0	32815	
7621	0	32788	
7622	0	32736	
7623	0	32816	
7624	0	32820	
7625	0	32830	
7626	0	32800	
7627	0	32800	
7628	0	32732	
7629	0	32748	
7630	0	32788	
7631	0	32760	
7632	0	32784	
7633	0	32756	
7634	0	32812	
7635	0	32742	
7636	0	32756	
7637	0	32860	
7638	0	32992	
7639	0	32912	
7640	0	32760	
7641	0	32734	
7642	0	32796	
7643	0	32772	
7644	0	32793	
7645	0	32780	
7646	0	32728	
7647	0	32740	
7648	0	32808	
7649	0	32760	
7650	0	32704	
7651	0	32744	
7652	0	32740	
7653	0	32856	
7654	0	32832	
7655	0	32768	
7656	0	32644	
7657	0	32669	
7658	0	32772	
7659	0	32696	
7660	0	32740	
7661	0	32812	
7662	0	32802	
7663	0	32840	
7664	0	32768	
7665	0	32757	
7666	0	32876	
7667	0	32788	
7668	0	32864	
7669	0	32820	
7670	0	32797	
7671	0	32848	
7672	0	32804	
7673	0	32792	
7674	0	32740	
7675	0	32832	
7676	0	32740	
7677	0	32738	
7678	0	32684	
7679	0	32660	
7680	0	32744	
7681	0	32728	
7682	0	32788	
7683	0	32800	
7684	0	32788	
7685	0	32752	
7686	0	32732	
7687	0	32748	
7688	0	32764	
7689	0	32740	
7690	0	32740	
7691	0	32804	
7692	0	32932	
7693	0	32937	
7694	0	32704	
7695	0	32736	
7696	0	32740	
7697	0	32812	
7698	0	32780	
7699	0	32716	
7700	0	32728	
7701	0	32720	
7702	0	32845	
7703	0	32868	
7704	0	32848	
7705	0	32757	
7706	0	32744	
7707	0	32864	
7708	0	32820	
7709	0	32800	
7710	0	32725	
7711	0	32760	
7712	0	32724	
7713	0	32750	
7714	0	32784	
7715	0	32796	
7716	0	32764	
7717	0	32820	
7718	0	32797	
7719	0	32872	
7720	0	32880	
7721	0	32796	
7722	0	32750	
7723	0	32737	
7724	0	32800	
7725	0	32756	
7726	0	32780	
7727	0	32752	
7728	0	32740	
7729	0	32688	
7730	0	32728	
7731	0	32800	
7732	0	32740	
7733	0	32780	
7734	0	32972	
7735	0	32824	
7736	0	32832	
7737	0	32832	
7738	0	32728	
7739	0	32750	
7740	0	32768	
7741	0	32628	
7742	0	32656	
7743	0	32652	
7744	0	32832	
7745	0	32764	
7746	0	32760	
7747	0	32716	
7748	0	32736	
7749	0	32776	
7750	0	32880	
7751	0	32924	
7752	0	32868	
7753	0	32788	
7754	0	32792	
7755	0	32838	
7756	0	32748	
7757	0	32832	
7758	0	32876	
7759	0	32788	
7760	0	32648	
7761	0	32638	
7762	0	32792	
7763	0	32704	
7764	0	32737	
7765	0	32788	
7766	0	32860	
7767	0	32832	
7768	0	32772	
7769	0	32780	
7770	0	32692	
7771	0	32696	
7772	0	32718	
7773	0	32788	
7774	0	32816	
7775	0	32879	
7776	0	32856	
7777	0	32824	
7778	0	32844	
7779	0	32788	
7780	0	32696	
7781	0	32728	
7782	0	32852	
7783	0	32804	
7784	0	32740	
7785	0	32740	
7786	0	32830	
7787	0	32829	
7788	0	32876	
7789	0	32824	
7790	0	32728	
7791	0	32720	
7792	0	32716	
7793	0	32732	
7794	0	32728	
7795	0	32717	
7796	0	32788	
7797	0	32820	
7798	0	32832	
7799	0	32846	
7800	0	32816	
7801	0	32792	
7802	0	32896	
7803	0	32840	
7804	0	32788	
7805	0	32840	
7806	0	32807	
7807	0	32784	
7808	0	32748	
7809	0	32676	
7810	0	32728	
7811	0	32748	
7812	0	32692	
7813	0	32668	
7814	0	32708	
7815	0	32768	
7816	0	32716	
7817	0	32672	
7818	0	32820	
7819	0	32852	
7820	0	33012	
7821	0	32968	
7822	0	32836	
7823	0	32831	
7824	0	32680	
7825	0	32660	
7826	0	32728	
7827	0	32798	
7828	0	32728	
7829	0	32756	
7830	0	32648	
7831	0	32652	
7832	0	32684	
7833	0	32761	
7834	0	32896	
7835	0	32994	
7836	0	32848	
7837	0	32753	
7838	0	32764	
7839	0	32716	
7840	0	32780	
7841	0	32740	
7842	0	32717	
7843	0	32721	
7844	0	32796	
7845	0	32732	
7846	0	32788	
7847	0	32952	
7848	0	33036	
7849	0	32836	
7850	0	32752	
7851	0	32700	
7852	0	32744	
7853	0	32760	
7854	0	32802	
7855	0	32780	
7856	0	32804	
7857	0	32756	
7858	0	32660	
7859	0	32732	
7860	0	32744	
7861	0	32774	
7862	0	32768	
7863	0	32860	
7864	0	32778	
7865	0	32792	
7866	0	32752	
7867	0	32812	
7868	0	32862	
7869	0	32892	
7870	0	32744	
7871	0	32692	
7872	0	32748	
7873	0	32832	
7874	0	32804	
7875	0	32796	
7876	0	32864	
7877	0	32849	
7878	0	32664	
7879	0	32696	
7880	0	32712	
7881	0	32676	
7882	0	32744	
7883	0	32684	
7884	0	32764	
7885	0	32920	
7886	0	32956	
7887	0	32824	
7888	0	32708	
7889	0	32684	
7890	0	32749	
7891	0	32776	
7892	0	32796	
7893	0	32709	
7894	0	32736	
7895	0	32880	
7896	0	32846	
7897	0	32808	
7898	0	32736	
7899	0	32748	
7900	0	32800	
7901	0	32780	
7902	0	32740	
7903	0	32752	
7904	0	32812	
7905	0	32792	
7906	0	32820	
7907	0	32800	
7908	0	32744	
7909	0	32800	
7910	0	32736	
7911	0	32680	
7912	0	32710	
7913	0	32824	
7914	0	32804	
7915	0	32828	
7916	0	32765	
7917	0	32833	
7918	0	32836	
7919	0	32769	
7920	0	32720	
7921	0	32724	
7922	0	32628	
7923	0	32820	
7924	0	32812	
7925	0	32837	
7926	0	32764	
7927	0	32696	
7928	0	32780	
7929	0	32788	
7930	0	32764	
7931	0	32692	
7932	0	32692	
7933	0	32796	
7934	0	32774	
7935	0	32844	
7936	0	32872	
7937	0	32784	
7938	0	32876	
7939	0	32820	
7940	0	32780	
7941	0	32762	
7942	0	32740	
7943	0	32784	
7944	0	32712	
7945	0	32740	
7946	0	32769	
7947	0	32764	
7948	0	32812	
7949	0	32901	
7950	0	32860	
7951	0	32877	
7952	0	32785	
7953	0	32752	
7954	0	32717	
7955	0	32748	
7956	0	32760	
7957	0	32717	
7958	0	32828	
7959	0	32796	
7960	0	32748	
7961	0	32708	
7962	0	32668	
7963	0	32784	
7964	0	32768	
7965	0	32804	
7966	0	32788	
7967	0	32800	
7968	0	32864	
7969	0	32820	
7970	0	32708	
7971	0	32694	
7972	0	32750	
7973	0	32728	
7974	0	32780	
7975	0	32808	
7976	0	32782	
7977	0	32820	
7978	0	32820	
7979	0	32868	
7980	0	32884	
7981	0	32824	
7982	0	32704	
7983	0	32668	
7984	0	32776	
7985	0	32756	
7986	0	32780	
7987	0	32821	
7988	0	32860	
7989	0	32804	
7990	0	32784	
7991	0	32804	
7992	0	32732	
7993	0	32668	
7994	0	32734	
7995	0	32813	
7996	0	32856	
7997	0	32720	
7998	0	32680	
7999	0	32872	
8000	0	33060	
8001	0	32920	
8002	0	32860	
8003	0	32736	
8004	0	32788	
8005	0	32680	
8006	0	32648	
8007	0	32592	
8008	0	32744	
8009	0	32808	
8010	0	32740	
8011	0	32788	
8012	0	32816	
8013	0	32784	
8014	0	32768	
8015	0	32744	
8016	0	32784	
8017	0	32732	
8018	0	32772	
8019	0	32760	
8020	0	32840	
8021	0	32784	
8022	0	32808	
8023	0	32774	
8024	0	32836	
8025	0	32764	
8026	0	32792	
8027	0	32772	
8028	0	32748	
8029	0	32764	
8030	0	32761	
8031	0	32776	
8032	0	32832	
8033	0	32864	
8034	0	32868	
8035	0	32768	
8036	0	32752	
8037	0	32732	
8038	0	32732	
8039	0	32808	
8040	0	32788	
8041	0	32744	
8042	0	32688	
8043	0	32685	
8044	0	32752	
8045	0	32752	
8046	0	32782	
8047	0	32828	
8048	0	32812	
8049	0	32780	
8050	0	32804	
8051	0	32845	
8052	0	32776	
8053	0	32725	
8054	0	32780	
8055	0	32805	
8056	0	32788	
8057	0	32888	
8058	0	32868	
8059	0	32816	
8060	0	32748	
8061	0	32724	
8062	0	32670	
8063	0	32676	
8064	0	32780	
8065	0	32764	
8066	0	32813	
8067	0	32804	
8068	0	32804	
8069	0	32752	
8070	0	32708	
8071	0	32772	
8072	0	32796	
8073	0	32808	
8074	0	32752	
8075	0	32757	
8076	0	32780	
8077	0	32768	
8078	0	32852	
8079	0	32822	
8080	0	32776	
8081	0	32788	
8082	0	32804	
8083	0	32760	
8084	0	32708	
8085	0	32780	
8086	0	32852	
8087	0	32816	
8088	0	32776	
8089	0	32820	
8090	0	32728	
8091	0	32844	
8092	0	32756	
8093	0	32808	
8094	0	32756	
8095	0	32620	
8096	0	32740	
8097	0	32792	
8098	0	32836	
8099	0	32785	
8100	0	32817	
8101	0	32800	
8102	0	32764	
8103	0	32712	
8104	0	32828	
8105	0	32862	
8106	0	32876	
8107	0	32780	
8108	0	32764	
8109	0	32872	
8110	0	32889	
8111	0	32872	
8112	0	32780	
8113	0	32686	
8114	0	32632	
8115	0	32708	
8116	0	32720	
8117	0	32652	
8118	0	32733	
8119	0	32792	
8120	0	32736	
8121	0	32872	
8122	0	32764	
8123	0	32796	
8124	0	32808	
8125	0	32796	
8126	0	32856	
8127	0	32820	
8128	0	32836	
8129	0	32792	
8130	0	32820	
8131	0	32776	
8132	0	32732	
8133	0	32832	
8134	0	32668	
8135	0	32692	
8136	0	32740	
8137	0	32852	
8138	0	32924	
8139	0	33144	
8140	0	32940	
8141	0	32640	
8142	0	32646	
8143	0	32628	
8144	0	32637	
8145	0	32688	
8146	0	32812	
8147	0	32860	
8148	0	32772	
8149	0	32772	
8150	0	32740	
8151	0	32784	
8152	0	32820	
8153	0	32900	
8154	0	32828	
8155	0	32712	
8156	0	32808	
8157	0	32716	
8158	0	32752	
8159	0	32760	
8160	0	32824	
8161	0	32792	
8162	0	32752	
8163	0	32788	
8164	0	32840	
8165	0	32752	
8166	0	32758	
8167	0	32824	
8168	0	32812	
8169	0	32776	
8170	0	32768	
8171	0	32656	
8172	0	32776	
8173	0	32664	
8174	0	32764	
8175	0	32796	
8176	0	32768	
8177	0	32756	
8178	0	32812	
8179	0	32832	
8180	0	32704	
8181	0	32732	
8182	0	32748	
8183	0	32696	
8184	0	32760	
8185	0	32716	
8186	0	32708	
8187	0	32756	
8188	0	32748	
8189	0	32858	
8190	0	32824	
8191	0	32832	
8192	0	32876	
8193	0	32814	
8194	0	32776	
8195	0	32800	
8196	0	32802	
8197	0	32748	
8198	0	32680	
8199	0	32762	
8200	0	32804	
8201	0	32876	
8202	0	32776	
8203	0	32820	
8204	0	32741	
8205	0	32752	
8206	0	32732	
8207	0	32730	
8208	0	32668	
8209	0	32808	
8210	0	32892	
8211	0	32905	
8212	0	32828	
8213	0	32797	
8214	0	32868	
8215	0	32814	
8216	0	32853	
8217	0	32848	
8218	0	32840	
8219	0	32804	
8220	0	32816	
8221	0	32736	
8222	0	32712	
8223	0	32676	
8224	0	32640	
8225	0	32676	
8226	0	32769	
8227	0	32740	
8228	0	32756	
8229	0	32736	
8230	0	32708	
8231	0	32820	
8232	0	32919	
8233	0	32917	
8234	0	32785	
8235	0	32816	
8236	0	32828	
8237	0	32776	
8238	0	32705	
8239	0	32740	
8240	0	32738	
8241	0	32792	
8242	0	32896	
8243	0	32932	
8244	0	32864	
8245	0	32894	
8246	0	32800	
8247	0	32736	
8248	0	32740	
8249	0	32839	
8250	0	32724	
8251	0	32712	
8252	0	32694	
8253	0	32780	
8254	0	32780	
8255	0	32840	
8256	0	32848	
8257	0	32828	
8258	0	32796	
8259	0	32824	
8260	0	32816	
8261	0	32794	
8262	0	32740	
8263	0	32720	
8264	0	32740	
8265	0	32708	
8266	0	32696	
8267	0	32776	
8268	0	32780	
8269	0	32828	
8270	0	32816	
8271	0	32800	
8272	0	32784	
8273	0	32716	
8274	0	32809	
8275	0	32828	
8276	0	32756	
8277	0	32752	
8278	0	32804	
8279	0	32792	
8280	0	32849	
8281	0	32836	
8282	0	32784	
8283	0	32764	
8284	0	32756	
8285	0	32728	
8286	0	32805	
8287	0	32772	
8288	0	32748	
8289	0	32704	
8290	0	32696	
8291	0	32824	
8292	0	32968	
8293	0	32892	
8294	0	32900	
8295	0	32816	
8296	0	32752	
8297	0	32713	
8298	0	32684	
8299	0	32800	
8300	0	32752	
8301	0	32692	
8302	0	32736	
8303	0	32752	
8304	0	32712	
8305	0	32804	
8306	0	32804	
8307	0	32824	
8308	0	32752	
8309	0	32732	
8310	0	32716	
8311	0	32824	
8312	0	32804	
8313	0	32856	
8314	0	32844	
8315	0	32844	
8316	0	32764	
8317	0	32784	
8318	0	32756	
8319	0	32696	
8320	0	32809	
8321	0	32976	
8322	0	32736	
8323	0	32824	
8324	0	32737	
8325	0	32816	
8326	0	32872	
8327	0	32672	
8328	0	32660	
8329	0	32668	
8330	0	32768	
8331	0	32890	
8332	0	32784	
8333	0	32700	
8334	0	32789	
8335	0	32868	
8336	0	32885	
8337	0	32772	
8338	0	32696	
8339	0	32724	
8340	0	32716	
8341	0	32768	
8342	0	32816	
8343	0	32780	
8344	0	32864	
8345	0	32784	
8346	0	32812	
8347	0	32792	
8348	0	32788	
8349	0	32824	
8350	0	32776	
8351	0	32720	
8352	0	32752	
8353	0	32900	
8354	0	32910	
8355	0	32764	
8356	0	32608	
8357	0	32733	
8358	0	32748	
8359	0	32764	
8360	0	32768	
8361	0	32804	
8362	0	32788	
8363	0	32738	
8364	0	32724	
8365	0	32768	
8366	0	32756	
8367	0	32668	
8368	0	32757	
8369	0	32812	
8370	0	32800	
8371	0	32800	
8372	0	32708	
8373	0	32848	
8374	0	32865	
8375	0	32757	
8376	0	32740	
8377	0	32741	
8378	0	32788	
8379	0	32732	
8380	0	32744	
8381	0	32750	
8382	0	32724	
8383	0	32784	
8384	0	32868	
8385	0	32892	
8386	0	32814	
8387	0	32796	
8388	0	32740	
8389	0	32736	
8390	0	32688	
8391	0	32793	
8392	0	32832	
8393	0	32712	
8394	0	32676	
8395	0	32780	
8396	0	32832	
8397	0	32828	
8398	0	32869	
8399	0	32864	
8400	0	32784	
8401	0	32780	
8402	0	32748	
8403	0	32732	
8404	0	32760	
8405	0	32788	
8406	0	32888	
8407	0	32896	
8408	0	32900	
8409	0	32846	
8410	0	32776	
8411	0	32654	
8412	0	32600	
8413	0	32613	
8414	0	32854	
8415	0	32926	
8416	0	32908	
8417	0	32770	
8418	0	32726	
8419	0	32700	
8420	0	32700	
8421	0	32748	
8422	0	32708	
8423	0	32718	
8424	0	32816	
8425	0	32865	
8426	0	32900	
8427	0	32804	
8428	0	32744	
8429	0	32765	
8430	0	32668	
8431	0	32692	
8432	0	32768	
8433	0	32828	
8434	0	32788	
8435	0	32768	
8436	0	32728	
8437	0	32776	
8438	0	32860	
8439	0	32940	
8440	0	32804	
8441	0	32748	
8442	0	32780	
8443	0	32780	
8444	0	32744	
8445	0	32708	
8446	0	32776	
8447	0	32772	
8448	0	32816	
8449	0	32856	
8450	0	32784	
8451	0	32801	
8452	0	32752	
8453	0	32732	
8454	0	32772	
8455	0	32777	
8456	0	32750	
8457	0	32800	
8458	0	32832	
8459	0	32816	
8460	0	32820	
8461	0	32841	
8462	0	32812	
8463	0	32736	
8464	0	32796	
8465	0	32800	
8466	0	32864	
8467	0	32772	
8468	0	32660	
8469	0	32700	
8470	0	32732	
8471	0	32768	
8472	0	32736	
8473	0	32756	
8474	0	32760	
8475	0	32828	
8476	0	32892	
8477	0	32824	
8478	0	32768	
8479	0	32832	
8480	0	32776	
8481	0	32764	
8482	0	32853	
8483	0	32900	
8484	0	32752	
8485	0	32708	
8486	0	32736	
8487	0	32744	
8488	0	32672	
8489	0	32612	
8490	0	32776	
8491	0	32996	
8492	0	32980	
8493	0	32872	
8494	0	32796	
8495	0	32904	
8496	0	32872	
8497	0	32836	
8498	0	32720	
8499	0	32680	
8500	0	32740	
8501	0	32708	
8502	0	32708	
8503	0	32740	
8504	0	32716	
8505	0	32760	
8506	0	32671	
8507	0	32694	
8508	0	32676	
8509	0	32828	
8510	0	32913	
8511	0	32868	
8512	0	32984	
8513	0	32900	
8514	0	32908	
8515	0	32912	
8516	0	32772	
8517	0	32764	
8518	0	32696	
8519	0	32764	
8520	0	32668	
8521	0	32732	
8522	0	32773	
8523	0	32688	
8524	0	32696	
8525	0	32644	
8526	0	32572	
8527	0	32765	
8528	0	32872	
8529	0	32852	
8530	0	32820	
8531	0	32816	
8532	0	32840	
8533	0	32740	
8534	0	32764	
8535	0	32872	
8536	0	32920	
8537	0	32849	
8538	0	32680	
8539	0	32776	
8540	0	32776	
8541	0	32780	
8542	0	32756	
8543	0	32812	
8544	0	32748	
8545	0	32760	
8546	0	32756	
8547	0	32684	
8548	0	32800	
8549	0	32802	
8550	0	32732	
8551	0	32748	
8552	0	32816	
8553	0	32800	
8554	0	32840	
8555	0	32846	
8556	0	32852	
8557	0	32864	
8558	0	32732	
8559	0	32761	
8560	0	32756	
8561	0	32824	
8562	0	32776	
8563	0	32780	
8564	0	32748	
8565	0	32708	
8566	0	32756	
8567	0	32832	
8568	0	32812	
8569	0	32832	
8570	0	32713	
8571	0	32760	
8572	0	32840	
8573	0	32796	
8574	0	32796	
8575	0	32848	
8576	0	32840	
8577	0	32772	
8578	0	32700	
8579	0	32688	
8580	0	32705	
8581	0	32832	
8582	0	32910	
8583	0	33020	
8584	0	32860	
8585	0	32676	
8586	0	32592	
8587	0	32730	
8588	0	32695	
8589	0	32644	
8590	0	32772	
8591	0	32826	
8592	0	32718	
8593	0	32600	
8594	0	32769	
8595	0	32860	
8596	0	32876	
8597	0	32697	
8598	0	32756	
8599	0	32832	
8600	0	32888	
8601	0	32972	
8602	0	33015	
8603	0	32904	
8604	0	32790	
8605	0	32812	
8606	0	32888	
8607	0	32828	
8608	0	32752	
8609	0	32734	
8610	0	32704	
8611	0	32656	
8612	0	32684	
