# OpenSignals Text File Format. Version 1
# {"00:07:80:4D:2E:9E": {"sensor": ["CUSTOM/0.5/1.0/V"], "device name": "00:07:80:4D:2E:9E", "column": ["nSeq", "DI", "CH1"], "sync interval": 2, "time": "17:19:43.510", "comments": "", "device connection": "BTH00:07:80:4D:2E:9E", "channels": [1], "keywords": "", "mode": 0, "digital IO": [0, 1], "firmware version": 774, "device": "biosignalsplux", "position": 0, "sampling rate": 1000, "label": ["CH1"], "resolution": [16], "date": "2020-7-11", "special": [{}]}}
# EndOfHeader
0	0	32788	
1	0	32812	
2	0	32764	
3	0	32736	
4	0	32808	
5	0	32888	
6	0	33036	
7	0	33032	
8	0	32888	
9	0	32748	
10	0	32768	
11	0	32676	
12	0	32688	
13	0	32828	
14	0	32780	
15	0	32908	
16	0	32768	
17	0	32748	
18	0	32704	
19	0	32788	
20	0	32764	
21	0	32700	
22	0	32728	
23	0	32800	
24	0	32736	
25	0	32700	
26	0	32804	
27	0	32888	
28	0	32800	
29	0	32708	
30	0	32804	
31	0	32784	
32	0	32852	
33	0	32844	
34	0	32724	
35	0	32752	
36	0	32724	
37	0	32796	
38	0	32805	
39	0	32764	
40	0	32792	
41	0	32690	
42	0	32780	
43	0	32796	
44	0	32776	
45	0	32808	
46	0	32784	
47	0	32788	
48	0	32780	
49	0	32748	
50	0	32800	
51	0	32764	
52	0	32836	
53	0	32780	
54	0	32740	
55	0	32701	
56	0	32700	
57	0	32776	
58	0	32753	
59	0	32784	
60	0	32769	
61	0	32764	
62	0	32852	
63	0	32828	
64	0	32750	
65	0	32808	
66	0	32784	
67	0	32728	
68	0	32604	
69	0	32728	
70	0	32744	
71	0	32852	
72	0	32864	
73	0	32800	
74	0	32794	
75	0	32868	
76	0	32844	
77	0	32836	
78	0	32920	
79	0	32828	
80	0	32872	
81	0	32728	
82	0	32672	
83	0	32640	
84	0	32632	
85	0	32788	
86	0	32842	
87	0	32822	
88	0	32760	
89	0	32784	
90	0	32799	
91	0	32794	
92	0	32724	
93	0	32760	
94	0	32812	
95	0	32816	
96	0	32788	
97	0	32774	
98	0	32694	
99	0	32860	
100	0	32780	
101	0	32812	
102	0	32838	
103	0	32756	
104	0	32720	
105	0	32708	
106	0	32837	
107	0	32824	
108	0	32828	
109	0	32740	
110	0	32620	
111	0	32696	
112	0	32784	
113	0	32804	
114	0	32896	
115	0	32880	
116	0	32798	
117	0	32816	
118	0	32808	
119	0	32832	
120	0	32752	
121	0	32740	
122	0	32733	
123	0	32764	
124	0	32740	
125	0	32764	
126	0	32780	
127	0	32817	
128	0	32768	
129	0	32804	
130	0	32772	
131	0	32784	
132	0	32709	
133	0	32712	
134	0	32804	
135	0	32797	
136	0	32748	
137	0	32736	
138	0	32825	
139	0	32804	
140	0	32776	
141	0	32792	
142	0	32748	
143	0	32772	
144	0	32844	
145	0	32796	
146	0	32784	
147	0	32788	
148	0	32896	
149	0	32869	
150	0	32840	
151	0	32704	
152	0	32780	
153	0	32728	
154	0	32780	
155	0	32780	
156	0	32788	
157	0	32740	
158	0	32720	
159	0	32668	
160	0	32733	
161	0	32708	
162	0	32733	
163	0	32824	
164	0	32944	
165	0	32936	
166	0	32908	
167	0	32928	
168	0	32832	
169	0	32716	
170	0	32780	
171	0	32800	
172	0	32808	
173	0	32692	
174	0	32676	
175	0	32680	
176	0	32692	
177	0	32700	
178	0	32730	
179	0	32772	
180	0	32800	
181	0	32816	
182	0	32744	
183	0	32856	
184	0	32796	
185	0	32760	
186	0	32772	
187	0	32848	
188	0	32868	
189	0	32816	
190	0	32804	
191	0	32764	
192	0	32775	
193	0	32784	
194	0	32780	
195	0	32780	
196	0	32724	
197	0	32716	
198	0	32712	
199	0	32732	
200	0	32756	
201	0	32756	
202	0	32788	
203	0	32832	
204	0	32790	
205	0	32784	
206	0	32788	
207	0	32788	
208	0	32752	
209	0	32768	
210	0	32768	
211	0	32776	
212	0	32802	
213	0	32752	
214	0	32764	
215	0	32852	
216	0	32744	
217	0	32716	
218	0	32780	
219	0	32748	
220	0	32720	
221	0	32720	
222	0	32676	
223	0	32856	
224	0	32764	
225	0	32820	
226	0	32868	
227	0	32916	
228	0	32838	
229	0	32736	
230	0	32744	
231	0	32788	
232	0	32808	
233	0	32772	
234	0	32812	
235	0	32741	
236	0	32800	
237	0	32840	
238	0	32828	
239	0	32824	
240	0	32664	
241	0	32720	
242	0	32868	
243	0	32892	
244	0	32768	
245	0	32669	
246	0	32696	
247	0	32732	
248	0	32816	
249	0	32781	
250	0	32776	
251	0	32788	
252	0	32868	
253	0	32808	
254	0	32736	
255	0	32733	
256	0	32752	
257	0	32735	
258	0	32852	
259	0	32806	
260	0	32796	
261	0	32820	
262	0	32748	
263	0	32768	
264	0	32760	
265	0	32792	
266	0	32748	
267	0	32785	
268	0	32728	
269	0	32718	
270	0	32824	
271	0	32776	
272	0	32840	
273	0	32836	
274	0	32800	
275	0	32840	
276	0	32726	
277	0	32804	
278	0	32820	
279	0	32820	
280	0	32784	
281	0	32632	
282	0	32732	
283	0	32756	
284	0	32744	
285	0	32764	
286	0	32804	
287	0	32804	
288	0	32877	
289	0	32846	
290	0	32944	
291	0	32888	
292	0	32828	
293	0	32736	
294	0	32780	
295	0	32749	
296	0	32764	
297	0	32748	
298	0	32760	
299	0	32752	
300	0	32796	
301	0	32788	
302	0	32748	
303	0	32740	
304	0	32724	
305	0	32712	
306	0	32742	
307	0	32780	
308	0	32736	
309	0	32772	
310	0	32780	
311	0	32852	
312	0	32884	
313	0	32892	
314	0	32809	
315	0	32744	
316	0	32808	
317	0	32720	
318	0	32692	
319	0	32790	
320	0	32772	
321	0	32712	
322	0	32788	
323	0	32832	
324	0	32732	
325	0	32788	
326	0	32780	
327	0	32817	
328	0	32796	
329	0	32876	
330	0	32760	
331	0	32792	
332	0	32772	
333	0	32717	
334	0	32768	
335	0	32708	
336	0	32724	
337	0	32800	
338	0	32828	
339	0	32868	
340	0	32812	
341	0	32724	
342	0	32824	
343	0	32776	
344	0	32792	
345	0	32750	
346	0	32858	
347	0	32740	
348	0	32804	
349	0	32808	
350	0	32832	
351	0	32772	
352	0	32768	
353	0	32653	
354	0	32736	
355	0	32752	
356	0	32732	
357	0	32852	
358	0	32872	
359	0	32836	
360	0	32808	
361	0	32812	
362	0	32704	
363	0	32780	
364	0	32764	
365	0	32848	
366	0	32736	
367	0	32809	
368	0	32703	
369	0	32704	
370	0	32860	
371	0	32836	
372	0	32748	
373	0	32712	
374	0	32616	
375	0	32748	
376	0	32800	
377	0	32880	
378	0	32820	
379	0	32764	
380	0	32740	
381	0	32720	
382	0	32748	
383	0	32788	
384	0	32854	
385	0	32848	
386	0	32840	
387	0	32829	
388	0	32752	
389	0	32788	
390	0	32772	
391	0	32765	
392	0	32756	
393	0	32824	
394	0	32774	
395	0	32752	
396	0	32807	
397	0	32744	
398	0	32749	
399	0	32734	
400	0	32812	
401	0	32736	
402	0	32732	
403	0	32793	
404	0	32804	
405	0	32765	
406	0	32764	
407	0	32773	
408	0	32800	
409	0	32808	
410	0	32808	
411	0	32860	
412	0	32796	
413	0	32788	
414	0	32764	
415	0	32756	
416	0	32824	
417	0	32828	
418	0	32768	
419	0	32776	
420	0	32804	
421	0	32741	
422	0	32740	
423	0	32768	
424	0	32720	
425	0	32700	
426	0	32792	
427	0	32788	
428	0	32808	
429	0	32808	
430	0	32768	
431	0	32748	
432	0	32780	
433	0	32764	
434	0	32772	
435	0	32768	
436	0	32732	
437	0	32736	
438	0	32820	
439	0	32760	
440	0	32808	
441	0	32816	
442	0	32800	
443	0	32824	
444	0	32776	
445	0	32768	
446	0	32796	
447	0	32772	
448	0	32756	
449	0	32738	
450	0	32764	
451	0	32824	
452	0	32901	
453	0	32892	
454	0	32852	
455	0	32756	
456	0	32792	
457	0	32769	
458	0	32712	
459	0	32832	
460	0	32757	
461	0	32728	
462	0	32689	
463	0	32740	
464	0	32836	
465	0	32804	
466	0	32836	
467	0	32740	
468	0	32804	
469	0	32809	
470	0	32768	
471	0	32728	
472	0	32706	
473	0	32792	
474	0	32768	
475	0	32848	
476	0	32772	
477	0	32808	
478	0	32744	
479	0	32725	
480	0	32749	
481	0	32706	
482	0	32694	
483	0	32656	
484	0	32800	
485	0	32808	
486	0	32944	
487	0	32976	
488	0	32952	
489	0	32788	
490	0	32684	
491	0	32740	
492	0	32736	
493	0	32748	
494	0	32760	
495	0	32804	
496	0	32774	
497	0	32732	
498	0	32772	
499	0	32648	
500	0	32648	
501	0	32760	
502	0	32772	
503	0	32836	
504	0	32828	
505	0	32736	
506	0	32820	
507	0	32744	
508	0	32808	
509	0	32760	
510	0	32780	
511	0	32792	
512	0	32788	
513	0	32752	
514	0	32796	
515	0	32776	
516	0	32800	
517	0	32692	
518	0	32761	
519	0	32714	
520	0	32865	
521	0	32684	
522	0	32772	
523	0	32897	
524	0	32896	
525	0	32844	
526	0	32728	
527	0	32800	
528	0	32832	
529	0	32752	
530	0	32752	
531	0	32800	
532	0	32804	
533	0	32665	
534	0	32740	
535	0	32800	
536	0	32784	
537	0	32756	
538	0	32788	
539	0	32812	
540	0	32764	
541	0	32740	
542	0	32714	
543	0	32845	
544	0	32820	
545	0	32736	
546	0	32800	
547	0	32804	
548	0	32804	
549	0	32800	
550	0	32736	
551	0	32738	
552	0	32796	
553	0	32864	
554	0	32916	
555	0	32900	
556	0	32900	
557	0	32764	
558	0	32764	
559	0	32684	
560	0	32686	
561	0	32684	
562	0	32752	
563	0	32816	
564	0	32800	
565	0	32796	
566	0	32768	
567	0	32776	
568	0	32776	
569	0	32780	
570	0	32800	
571	0	32730	
572	0	32740	
573	0	32744	
574	0	32792	
575	0	32764	
576	0	32780	
577	0	32748	
578	0	32752	
579	0	32792	
580	0	32788	
581	0	32832	
582	0	32766	
583	0	32852	
584	0	32764	
585	0	32776	
586	0	32808	
587	0	32776	
588	0	32800	
589	0	32736	
590	0	32728	
591	0	32784	
592	0	32844	
593	0	32808	
594	0	32772	
595	0	32740	
596	0	32736	
597	0	32792	
598	0	32796	
599	0	32764	
600	0	32832	
601	0	32844	
602	0	32816	
603	0	32736	
604	0	32768	
605	0	32688	
606	0	32780	
607	0	32700	
608	0	32784	
609	0	32828	
610	0	32792	
611	0	32756	
612	0	32760	
613	0	32748	
614	0	32748	
615	0	32784	
616	0	32796	
617	0	32796	
618	0	32878	
619	0	32804	
620	0	32834	
621	0	32777	
622	0	32801	
623	0	32736	
624	0	32836	
625	0	32792	
626	0	32768	
627	0	32700	
628	0	32708	
629	0	32766	
630	0	32740	
631	0	32716	
632	0	32796	
633	0	32892	
634	0	32848	
635	0	32780	
636	0	32764	
637	0	32770	
638	0	32804	
639	0	32860	
640	0	32740	
641	0	32744	
642	0	32725	
643	0	32668	
644	0	32692	
645	0	32792	
646	0	32897	
647	0	32888	
648	0	32760	
649	0	32708	
650	0	32768	
651	0	32752	
652	0	32788	
653	0	32734	
654	0	32752	
655	0	32860	
656	0	32800	
657	0	32812	
658	0	32772	
659	0	32812	
660	0	32728	
661	0	32748	
662	0	32740	
663	0	32740	
664	0	32804	
665	0	32833	
666	0	32861	
667	0	32768	
668	0	32778	
669	0	32840	
670	0	32785	
671	0	32752	
672	0	32764	
673	0	32808	
674	0	32804	
675	0	32720	
676	0	32760	
677	0	32732	
678	0	32804	
679	0	32784	
680	0	32770	
681	0	32708	
682	0	32848	
683	0	32845	
684	0	32788	
685	0	32804	
686	0	32713	
687	0	32756	
688	0	32892	
689	0	32927	
690	0	32868	
691	0	32812	
692	0	32768	
693	0	32740	
694	0	32702	
695	0	32676	
696	0	32760	
697	0	32756	
698	0	32692	
699	0	32746	
700	0	32776	
701	0	32740	
702	0	32756	
703	0	32708	
704	0	32792	
705	0	32792	
706	0	32740	
707	0	32832	
708	0	32876	
709	0	32788	
710	0	32788	
711	0	32784	
712	0	32775	
713	0	32872	
714	0	32841	
715	0	32864	
716	0	32888	
717	0	32892	
718	0	32756	
719	0	32717	
720	0	32728	
721	0	32732	
722	0	32725	
723	0	32756	
724	0	32704	
725	0	32724	
726	0	32760	
727	0	32788	
728	0	32820	
729	0	32814	
730	0	32764	
731	0	32695	
732	0	32732	
733	0	32784	
734	0	32845	
735	0	32889	
736	0	32856	
737	0	32804	
738	0	32796	
739	0	32812	
740	0	32704	
741	0	32769	
742	0	32722	
743	0	32780	
744	0	32788	
745	0	32740	
746	0	32824	
747	0	32736	
748	0	32860	
749	0	32772	
750	0	32740	
751	0	32820	
752	0	32748	
753	0	32744	
754	0	32788	
755	0	32772	
756	0	32704	
757	0	32724	
758	0	32712	
759	0	32796	
760	0	32756	
761	0	32750	
762	0	32804	
763	0	32844	
764	0	32752	
765	0	32716	
766	0	32844	
767	0	32756	
768	0	32733	
769	0	32832	
770	0	32820	
771	0	32868	
772	0	32861	
773	0	32836	
774	0	32792	
775	0	32776	
776	0	32689	
777	0	32756	
778	0	32728	
779	0	32844	
780	0	32832	
781	0	32780	
782	0	32750	
783	0	32804	
784	0	32732	
785	0	32736	
786	0	32816	
787	0	32736	
788	0	32824	
789	0	32784	
790	0	32800	
791	0	32743	
792	0	32776	
793	0	32764	
794	0	32813	
795	0	32743	
796	0	32712	
797	0	32726	
798	0	32696	
799	0	32744	
800	0	32712	
801	0	32784	
802	0	32848	
803	0	32798	
804	0	32868	
805	0	32800	
806	0	32864	
807	0	32820	
808	0	32864	
809	0	32868	
810	0	32812	
811	0	32748	
812	0	32828	
813	0	32720	
814	0	32812	
815	0	32793	
816	0	32776	
817	0	32796	
818	0	32832	
819	0	32832	
820	0	32820	
821	0	32750	
822	0	32736	
823	0	32705	
824	0	32712	
825	0	32813	
826	0	32756	
827	0	32716	
828	0	32736	
829	0	32809	
830	0	32832	
831	0	32904	
832	0	32903	
833	0	32810	
834	0	32720	
835	0	32776	
836	0	32816	
837	0	32789	
838	0	32800	
839	0	32724	
840	0	32653	
841	0	32712	
842	0	32736	
843	0	32724	
844	0	32776	
845	0	32760	
846	0	32785	
847	0	32816	
848	0	32860	
849	0	32820	
850	0	32748	
851	0	32804	
852	0	32800	
853	0	32725	
854	0	32788	
855	0	32740	
856	0	32740	
857	0	32752	
858	0	32860	
859	0	32844	
860	0	32784	
861	0	32840	
862	0	32668	
863	0	32740	
864	0	32752	
865	0	32784	
866	0	32764	
867	0	32812	
868	0	32824	
869	0	32828	
870	0	32820	
871	0	32796	
872	0	32796	
873	0	32700	
874	0	32788	
875	0	32800	
876	0	32804	
877	0	32772	
878	0	32800	
879	0	32737	
880	0	32756	
881	0	32768	
882	0	32816	
883	0	32792	
884	0	32768	
885	0	32792	
886	0	32804	
887	0	32800	
888	0	32800	
889	0	32724	
890	0	32772	
891	0	32773	
892	0	32725	
893	0	32726	
894	0	32792	
895	0	32849	
896	0	32820	
897	0	32764	
898	0	32692	
899	0	32784	
900	0	32796	
901	0	32748	
902	0	32766	
903	0	32756	
904	0	32788	
905	0	32800	
906	0	32772	
907	0	32832	
908	0	32805	
909	0	32796	
910	0	32796	
911	0	32844	
912	0	32793	
913	0	32798	
914	0	32745	
915	0	32757	
916	0	32693	
917	0	32776	
918	0	32724	
919	0	32774	
920	0	32824	
921	0	32796	
922	0	32740	
923	0	32789	
924	0	32732	
925	0	32718	
926	0	32778	
927	0	32826	
928	0	32801	
929	0	32836	
930	0	32764	
931	0	32748	
932	0	32840	
933	0	32852	
934	0	32792	
935	0	32780	
936	0	32796	
937	0	32836	
938	0	32748	
939	0	32780	
940	0	32734	
941	0	32693	
942	0	32737	
943	0	32756	
944	0	32744	
945	0	32716	
946	0	32748	
947	0	32820	
948	0	32788	
949	0	32844	
950	0	32804	
951	0	32816	
952	0	32856	
953	0	32900	
954	0	32772	
955	0	32688	
956	0	32784	
957	0	32836	
958	0	32860	
959	0	32752	
960	0	32772	
961	0	32717	
962	0	32724	
963	0	32704	
964	0	32756	
965	0	32756	
966	0	32726	
967	0	32680	
968	0	32752	
969	0	32741	
970	0	32756	
971	0	32775	
972	0	32812	
973	0	32812	
974	0	32856	
975	0	32892	
976	0	32828	
977	0	32740	
978	0	32672	
979	0	32744	
980	0	32794	
981	0	32768	
982	0	32748	
983	0	32716	
984	0	32712	
985	0	32672	
986	0	32772	
987	0	32824	
988	0	32808	
989	0	32812	
990	0	32828	
991	0	32764	
992	0	32844	
993	0	32784	
994	0	32764	
995	0	32842	
996	0	32768	
997	0	32772	
998	0	32736	
999	0	32796	
1000	0	32769	
1001	0	32750	
1002	0	32796	
1003	0	32772	
1004	0	32802	
1005	0	32756	
1006	0	32700	
1007	0	32756	
1008	0	32789	
1009	0	32776	
1010	0	32852	
1011	0	32756	
1012	0	32784	
1013	0	32784	
1014	0	32688	
1015	0	32836	
1016	0	32812	
1017	0	32800	
1018	0	32872	
1019	0	32756	
1020	0	32680	
1021	0	32756	
1022	0	32804	
1023	0	32798	
1024	0	32820	
1025	0	32752	
1026	0	32736	
1027	0	32832	
1028	0	32813	
1029	0	32768	
1030	0	32740	
1031	0	32860	
1032	0	32749	
1033	0	32760	
1034	0	32764	
1035	0	32724	
1036	0	32772	
1037	0	32824	
1038	0	32832	
1039	0	32838	
1040	0	32736	
1041	0	32696	
1042	0	32768	
1043	0	32761	
1044	0	32790	
1045	0	32764	
1046	0	32788	
1047	0	32836	
1048	0	32809	
1049	0	32808	
1050	0	32780	
1051	0	32868	
1052	0	32797	
1053	0	32681	
1054	0	32772	
1055	0	32784	
1056	0	32892	
1057	0	32762	
1058	0	32820	
1059	0	32768	
1060	0	32796	
1061	0	32748	
1062	0	32728	
1063	0	32736	
1064	0	32728	
1065	0	32744	
1066	0	32772	
1067	0	32766	
1068	0	32740	
1069	0	32824	
1070	0	32788	
1071	0	32796	
1072	0	32724	
1073	0	32740	
1074	0	32836	
1075	0	32756	
1076	0	32784	
1077	0	32800	
1078	0	32800	
1079	0	32764	
1080	0	32776	
1081	0	32793	
1082	0	32804	
1083	0	32764	
1084	0	32708	
1085	0	32728	
1086	0	32752	
1087	0	32686	
1088	0	32756	
1089	0	32792	
1090	0	32792	
1091	0	32888	
1092	0	32733	
1093	0	32788	
1094	0	32743	
1095	0	32708	
1096	0	32756	
1097	0	32752	
1098	0	32848	
1099	0	32802	
1100	0	32860	
1101	0	32801	
1102	0	32696	
1103	0	32792	
1104	0	32900	
1105	0	32820	
1106	0	32832	
1107	0	32824	
1108	0	32793	
1109	0	32760	
1110	0	32748	
1111	0	32756	
1112	0	32752	
1113	0	32784	
1114	0	32724	
1115	0	32796	
1116	0	32780	
1117	0	32784	
1118	0	32765	
1119	0	32816	
1120	0	32776	
1121	0	32772	
1122	0	32736	
1123	0	32824	
1124	0	32813	
1125	0	32792	
1126	0	32788	
1127	0	32790	
1128	0	32792	
1129	0	32804	
1130	0	32736	
1131	0	32732	
1132	0	32720	
1133	0	32736	
1134	0	32860	
1135	0	32748	
1136	0	32668	
1137	0	32744	
1138	0	32780	
1139	0	32788	
1140	0	32852	
1141	0	32884	
1142	0	32856	
1143	0	32812	
1144	0	32716	
1145	0	32804	
1146	0	32652	
1147	0	32812	
1148	0	32828	
1149	0	32838	
1150	0	32728	
1151	0	32772	
1152	0	32776	
1153	0	32782	
1154	0	32750	
1155	0	32768	
1156	0	32776	
1157	0	32676	
1158	0	32720	
1159	0	32820	
1160	0	32888	
1161	0	32772	
1162	0	32732	
1163	0	32808	
1164	0	32844	
1165	0	32832	
1166	0	32724	
1167	0	32692	
1168	0	32788	
1169	0	32737	
1170	0	32832	
1171	0	32808	
1172	0	32858	
1173	0	32824	
1174	0	32760	
1175	0	32712	
1176	0	32816	
1177	0	32776	
1178	0	32719	
1179	0	32765	
1180	0	32800	
1181	0	32796	
1182	0	32748	
1183	0	32764	
1184	0	32788	
1185	0	32784	
1186	0	32741	
1187	0	32765	
1188	0	32788	
1189	0	32768	
1190	0	32748	
1191	0	32736	
1192	0	32720	
1193	0	32798	
1194	0	32804	
1195	0	32772	
1196	0	32740	
1197	0	32816	
1198	0	32752	
1199	0	32768	
1200	0	32808	
1201	0	32749	
1202	0	32804	
1203	0	32804	
1204	0	32844	
1205	0	32804	
1206	0	32772	
1207	0	32812	
1208	0	32788	
1209	0	32736	
1210	0	32677	
1211	0	32788	
1212	0	32820	
1213	0	32753	
1214	0	32837	
1215	0	32804	
1216	0	32748	
1217	0	32710	
1218	0	32702	
1219	0	32684	
1220	0	32788	
1221	0	32756	
1222	0	32836	
1223	0	32896	
1224	0	32756	
1225	0	32652	
1226	0	32712	
1227	0	32768	
1228	0	32760	
1229	0	32801	
1230	0	32756	
1231	0	32782	
1232	0	32858	
1233	0	32864	
1234	0	33020	
1235	0	33040	
1236	0	32848	
1237	0	32876	
1238	0	32780	
1239	0	32728	
1240	0	32816	
1241	0	32836	
1242	0	32900	
1243	0	32804	
1244	0	32750	
1245	0	32752	
1246	0	32796	
1247	0	32820	
1248	0	32856	
1249	0	32864	
1250	0	32852	
1251	0	32792	
1252	0	32736	
1253	0	32736	
1254	0	32621	
1255	0	32732	
1256	0	32660	
1257	0	32685	
1258	0	32712	
1259	0	32712	
1260	0	32679	
1261	0	32800	
1262	0	32812	
1263	0	32780	
1264	0	32672	
1265	0	32661	
1266	0	32768	
1267	0	32832	
1268	0	32868	
1269	0	32756	
1270	0	32793	
1271	0	32740	
1272	0	32768	
1273	0	32812	
1274	0	32696	
1275	0	32712	
1276	0	32748	
1277	0	32788	
1278	0	32770	
1279	0	32628	
1280	0	32776	
1281	0	32776	
1282	0	32672	
1283	0	32792	
1284	0	32792	
1285	0	32805	
1286	0	32876	
1287	0	32856	
1288	0	32904	
1289	0	32912	
1290	0	32868	
1291	0	32792	
1292	0	32780	
1293	0	32884	
1294	0	32776	
1295	0	32752	
1296	0	32676	
1297	0	32720	
1298	0	32788	
1299	0	32804	
1300	0	32736	
1301	0	32704	
1302	0	32641	
1303	0	32808	
1304	0	32752	
1305	0	32800	
1306	0	32776	
1307	0	32780	
1308	0	32792	
1309	0	32806	
1310	0	32780	
1311	0	32784	
1312	0	32808	
1313	0	32780	
1314	0	32773	
1315	0	32748	
1316	0	32780	
1317	0	32696	
1318	0	32758	
1319	0	32804	
1320	0	32756	
1321	0	32756	
1322	0	32760	
1323	0	32814	
1324	0	32876	
1325	0	32900	
1326	0	32808	
1327	0	32742	
1328	0	32848	
1329	0	32820	
1330	0	32800	
1331	0	32744	
1332	0	32748	
1333	0	32776	
1334	0	32765	
1335	0	32788	
1336	0	32708	
1337	0	32772	
1338	0	32808	
1339	0	32764	
1340	0	32704	
1341	0	32766	
1342	0	32812	
1343	0	32790	
1344	0	32753	
1345	0	32788	
1346	0	32800	
1347	0	32838	
1348	0	32733	
1349	0	32752	
1350	0	32804	
1351	0	32772	
1352	0	32820	
1353	0	32744	
1354	0	32740	
1355	0	32792	
1356	0	32709	
1357	0	32740	
1358	0	32856	
1359	0	32792	
1360	0	32732	
1361	0	32708	
1362	0	32736	
1363	0	32772	
1364	0	32792	
1365	0	32862	
1366	0	32780	
1367	0	32796	
1368	0	32720	
1369	0	32844	
1370	0	32828	
1371	0	32797	
1372	0	32868	
1373	0	32780	
1374	0	32733	
1375	0	32728	
1376	0	32816	
1377	0	32750	
1378	0	32760	
1379	0	32828	
1380	0	32836	
1381	0	32764	
1382	0	32768	
1383	0	32800	
1384	0	32768	
1385	0	32752	
1386	0	32768	
1387	0	32728	
1388	0	32784	
1389	0	32780	
1390	0	32856	
1391	0	32720	
1392	0	32804	
1393	0	32812	
1394	0	32824	
1395	0	32832	
1396	0	32832	
1397	0	32804	
1398	0	32800	
1399	0	32776	
1400	0	32692	
1401	0	32780	
1402	0	32660	
1403	0	32704	
1404	0	32700	
1405	0	32781	
1406	0	32804	
1407	0	32804	
1408	0	32804	
1409	0	32816	
1410	0	32893	
1411	0	32862	
1412	0	32776	
1413	0	32752	
1414	0	32772	
1415	0	32775	
1416	0	32778	
1417	0	32856	
1418	0	32732	
1419	0	32796	
1420	0	32760	
1421	0	32712	
1422	0	32713	
1423	0	32764	
1424	0	32796	
1425	0	32720	
1426	0	32748	
1427	0	32768	
1428	0	32788	
1429	0	32812	
1430	0	32788	
1431	0	32868	
1432	0	32836	
1433	0	32838	
1434	0	32844	
1435	0	32744	
1436	0	32820	
1437	0	32797	
1438	0	32757	
1439	0	32749	
1440	0	32704	
1441	0	32728	
1442	0	32804	
1443	0	32720	
1444	0	32778	
1445	0	32764	
1446	0	32676	
1447	0	32756	
1448	0	32800	
1449	0	32816	
1450	0	32860	
1451	0	32761	
1452	0	32720	
1453	0	32792	
1454	0	32752	
1455	0	32792	
1456	0	32848	
1457	0	32736	
1458	0	32784	
1459	0	32756	
1460	0	32748	
1461	0	32812	
1462	0	32756	
1463	0	32736	
1464	0	32809	
1465	0	32805	
1466	0	32708	
1467	0	32724	
1468	0	32820	
1469	0	32878	
1470	0	32788	
1471	0	32856	
1472	0	32778	
1473	0	32812	
1474	0	32756	
1475	0	32752	
1476	0	32756	
1477	0	32768	
1478	0	32805	
1479	0	32756	
1480	0	32768	
1481	0	32796	
1482	0	32816	
1483	0	32800	
1484	0	32768	
1485	0	32737	
1486	0	32788	
1487	0	32816	
1488	0	32784	
1489	0	32844	
1490	0	32816	
1491	0	32772	
1492	0	32780	
1493	0	32813	
1494	0	32796	
1495	0	32756	
1496	0	32776	
1497	0	32760	
1498	0	32696	
1499	0	32744	
1500	0	32744	
1501	0	32788	
1502	0	32840	
1503	0	32824	
1504	0	32809	
1505	0	32800	
1506	0	32740	
1507	0	32776	
1508	0	32756	
1509	0	32780	
1510	0	32808	
1511	0	32864	
1512	0	32896	
1513	0	32793	
1514	0	32696	
1515	0	32736	
1516	0	32764	
1517	0	32844	
1518	0	32644	
1519	0	32776	
1520	0	32760	
1521	0	32804	
1522	0	32780	
1523	0	32768	
1524	0	32740	
1525	0	32688	
1526	0	32756	
1527	0	32792	
1528	0	32860	
1529	0	32768	
1530	0	32836	
1531	0	32808	
1532	0	32828	
1533	0	32806	
1534	0	32724	
1535	0	32716	
1536	0	32784	
1537	0	32820	
1538	0	32752	
1539	0	32736	
1540	0	32724	
1541	0	32716	
1542	0	32788	
1543	0	32804	
1544	0	32740	
1545	0	32736	
1546	0	32836	
1547	0	32768	
1548	0	32872	
1549	0	32772	
1550	0	32752	
1551	0	32764	
1552	0	32848	
1553	0	32764	
1554	0	32800	
1555	0	32772	
1556	0	32700	
1557	0	32752	
1558	0	32694	
1559	0	32716	
1560	0	32732	
1561	0	32800	
1562	0	32772	
1563	0	32836	
1564	0	32868	
1565	0	32774	
1566	0	32789	
1567	0	32847	
1568	0	32804	
1569	0	32868	
1570	0	32844	
1571	0	32696	
1572	0	32774	
1573	0	32740	
1574	0	32704	
1575	0	32770	
1576	0	32812	
1577	0	32820	
1578	0	32792	
1579	0	32756	
1580	0	32716	
1581	0	32772	
1582	0	32724	
1583	0	32788	
1584	0	32821	
1585	0	32813	
1586	0	32792	
1587	0	32876	
1588	0	32812	
1589	0	32808	
1590	0	32768	
1591	0	32744	
1592	0	32840	
1593	0	32753	
1594	0	32804	
1595	0	32824	
1596	0	32728	
1597	0	32854	
1598	0	32772	
1599	0	32816	
1600	0	32828	
1601	0	32728	
1602	0	32796	
1603	0	32748	
1604	0	32756	
1605	0	32716	
1606	0	32749	
1607	0	32708	
1608	0	32796	
1609	0	32788	
1610	0	32776	
1611	0	32732	
1612	0	32740	
1613	0	32772	
1614	0	32704	
1615	0	32696	
1616	0	32712	
1617	0	32708	
1618	0	32792	
1619	0	32768	
1620	0	32756	
1621	0	32792	
1622	0	32728	
1623	0	32752	
1624	0	32876	
1625	0	32830	
1626	0	32948	
1627	0	33014	
1628	0	32980	
1629	0	32877	
1630	0	32825	
1631	0	32788	
1632	0	32804	
1633	0	32752	
1634	0	32704	
1635	0	32813	
1636	0	32692	
1637	0	32744	
1638	0	32764	
1639	0	32724	
1640	0	32744	
1641	0	32772	
1642	0	32860	
1643	0	32764	
1644	0	32728	
1645	0	32776	
1646	0	32732	
1647	0	32748	
1648	0	32836	
1649	0	32892	
1650	0	32804	
1651	0	32840	
1652	0	32768	
1653	0	32700	
1654	0	32792	
1655	0	32785	
1656	0	32764	
1657	0	32732	
1658	0	32776	
1659	0	32748	
1660	0	32740	
1661	0	32764	
1662	0	32816	
1663	0	32745	
1664	0	32744	
1665	0	32644	
1666	0	32692	
1667	0	32788	
1668	0	32868	
1669	0	32816	
1670	0	32877	
1671	0	32797	
1672	0	32712	
1673	0	32688	
1674	0	32692	
1675	0	32776	
1676	0	32832	
1677	0	32796	
1678	0	32812	
1679	0	32756	
1680	0	32701	
1681	0	32793	
1682	0	32804	
1683	0	32758	
1684	0	32884	
1685	0	32752	
1686	0	32784	
1687	0	32800	
1688	0	32840	
1689	0	32832	
1690	0	32733	
1691	0	32668	
1692	0	32816	
1693	0	32864	
1694	0	32764	
1695	0	32780	
1696	0	32714	
1697	0	32708	
1698	0	32788	
1699	0	32804	
1700	0	32836	
1701	0	32744	
1702	0	32772	
1703	0	32728	
1704	0	32796	
1705	0	32744	
1706	0	32804	
1707	0	32768	
1708	0	32848	
1709	0	32852	
1710	0	32752	
1711	0	32792	
1712	0	32766	
1713	0	32800	
1714	0	32772	
1715	0	32788	
1716	0	32788	
1717	0	32768	
1718	0	32820	
1719	0	32824	
1720	0	32768	
1721	0	32800	
1722	0	32766	
1723	0	32744	
1724	0	32760	
1725	0	32812	
1726	0	32816	
1727	0	32776	
1728	0	32744	
1729	0	32816	
1730	0	32848	
1731	0	32862	
1732	0	32816	
1733	0	32812	
1734	0	32668	
1735	0	32772	
1736	0	32756	
1737	0	32760	
1738	0	32772	
1739	0	32720	
1740	0	32668	
1741	0	32702	
1742	0	32767	
1743	0	32796	
1744	0	32780	
1745	0	32800	
1746	0	32776	
1747	0	32820	
1748	0	32812	
1749	0	32752	
1750	0	32780	
1751	0	32808	
1752	0	32732	
1753	0	32832	
1754	0	32776	
1755	0	32744	
1756	0	32716	
1757	0	32856	
1758	0	32774	
1759	0	32776	
1760	0	32800	
1761	0	32768	
1762	0	32740	
1763	0	32738	
1764	0	32828	
1765	0	32872	
1766	0	32872	
1767	0	32708	
1768	0	32696	
1769	0	32816	
1770	0	32844	
1771	0	32872	
1772	0	32808	
1773	0	32724	
1774	0	32764	
1775	0	32808	
1776	0	32797	
1777	0	32794	
1778	0	32768	
1779	0	32804	
1780	0	32781	
1781	0	32750	
1782	0	32848	
1783	0	32794	
1784	0	32760	
1785	0	32756	
1786	0	32852	
1787	0	32748	
1788	0	32793	
1789	0	32808	
1790	0	32768	
1791	0	32808	
1792	0	32792	
1793	0	32772	
1794	0	32764	
1795	0	32832	
1796	0	32886	
1797	0	32796	
1798	0	32749	
1799	0	32652	
1800	0	32685	
1801	0	32804	
1802	0	32800	
1803	0	32764	
1804	0	32748	
1805	0	32796	
1806	0	32720	
1807	0	32808	
1808	0	32852	
1809	0	32852	
1810	0	32900	
1811	0	32804	
1812	0	32744	
1813	0	32696	
1814	0	32696	
1815	0	32776	
1816	0	32804	
1817	0	32748	
1818	0	32762	
1819	0	32752	
1820	0	32740	
1821	0	32776	
1822	0	32796	
1823	0	32772	
1824	0	32748	
1825	0	32777	
1826	0	32788	
1827	0	32809	
1828	0	32812	
1829	0	32852	
1830	0	32796	
1831	0	32792	
1832	0	32832	
1833	0	32800	
1834	0	32728	
1835	0	32780	
1836	0	32736	
1837	0	32816	
1838	0	32804	
1839	0	32756	
1840	0	32744	
1841	0	32788	
1842	0	32800	
1843	0	32770	
1844	0	32717	
1845	0	32710	
1846	0	32809	
1847	0	32782	
1848	0	32768	
1849	0	32764	
1850	0	32817	
1851	0	32768	
1852	0	32752	
1853	0	32836	
1854	0	32772	
1855	0	32782	
1856	0	32808	
1857	0	32788	
1858	0	32837	
1859	0	32768	
1860	0	32726	
1861	0	32782	
1862	0	32756	
1863	0	32796	
1864	0	32736	
1865	0	32844	
1866	0	32844	
1867	0	32852	
1868	0	32880	
1869	0	32820	
1870	0	32720	
1871	0	32708	
1872	0	32676	
1873	0	32822	
1874	0	32792	
1875	0	32810	
1876	0	32692	
1877	0	32716	
1878	0	32712	
1879	0	32748	
1880	0	32844	
1881	0	32889	
1882	0	32812	
1883	0	32680	
1884	0	32768	
1885	0	32740	
1886	0	32772	
1887	0	32812	
1888	0	32820	
1889	0	32820	
1890	0	32712	
1891	0	32796	
1892	0	32772	
1893	0	32774	
1894	0	32812	
1895	0	32868	
1896	0	32904	
1897	0	32797	
1898	0	32708	
1899	0	32720	
1900	0	32756	
1901	0	32832	
1902	0	32828	
1903	0	32788	
1904	0	32676	
1905	0	32772	
1906	0	32836	
1907	0	32824	
1908	0	32780	
1909	0	32805	
1910	0	32824	
1911	0	32812	
1912	0	32785	
1913	0	32808	
1914	0	32816	
1915	0	32712	
1916	0	32757	
1917	0	32784	
1918	0	32786	
1919	0	32760	
1920	0	32772	
1921	0	32780	
1922	0	32824	
1923	0	32800	
1924	0	32756	
1925	0	32816	
1926	0	32836	
1927	0	32750	
1928	0	32752	
1929	0	32760	
1930	0	32784	
1931	0	32776	
1932	0	32813	
1933	0	32768	
1934	0	32732	
1935	0	32718	
1936	0	32792	
1937	0	32788	
1938	0	32808	
1939	0	32792	
1940	0	32780	
1941	0	32824	
1942	0	32808	
1943	0	32796	
1944	0	32712	
1945	0	32728	
1946	0	32760	
1947	0	32840	
1948	0	32836	
1949	0	32773	
1950	0	32820	
1951	0	32741	
1952	0	32824	
1953	0	32824	
1954	0	32876	
1955	0	32740	
1956	0	32669	
1957	0	32745	
1958	0	32832	
1959	0	32820	
1960	0	32781	
1961	0	32788	
1962	0	32816	
1963	0	32817	
1964	0	32838	
1965	0	32792	
1966	0	32744	
1967	0	32796	
1968	0	32758	
1969	0	32720	
1970	0	32736	
1971	0	32784	
1972	0	32785	
1973	0	32772	
1974	0	32788	
1975	0	32772	
1976	0	32716	
1977	0	32737	
1978	0	32688	
1979	0	32848	
1980	0	32804	
1981	0	32840	
1982	0	32856	
1983	0	32852	
1984	0	32812	
1985	0	32766	
1986	0	32732	
1987	0	32676	
1988	0	32845	
1989	0	32900	
1990	0	32824	
1991	0	32764	
1992	0	32676	
1993	0	32712	
1994	0	32756	
1995	0	32732	
1996	0	32780	
1997	0	32832	
1998	0	32840	
1999	0	32892	
2000	0	32877	
2001	0	32832	
2002	0	32742	
2003	0	32708	
2004	0	32672	
2005	0	32736	
2006	0	32724	
2007	0	32785	
2008	0	32752	
2009	0	32824	
2010	0	32780	
2011	0	32746	
2012	0	32797	
2013	0	32796	
2014	0	32824	
2015	0	32780	
2016	0	32736	
2017	0	32704	
2018	0	32780	
2019	0	32808	
2020	0	32820	
2021	0	32756	
2022	0	32784	
2023	0	32776	
2024	0	32716	
2025	0	32756	
2026	0	32829	
2027	0	32836	
2028	0	32816	
2029	0	32852	
2030	0	32788	
2031	0	32750	
2032	0	32736	
2033	0	32766	
2034	0	32804	
2035	0	32796	
2036	0	32780	
2037	0	32724	
2038	0	32820	
2039	0	32780	
2040	0	32728	
2041	0	32732	
2042	0	32784	
2043	0	32800	
2044	0	32780	
2045	0	32789	
2046	0	32828	
2047	0	32812	
2048	0	32748	
2049	0	32792	
2050	0	32768	
2051	0	32804	
2052	0	32758	
2053	0	32792	
2054	0	32800	
2055	0	32764	
2056	0	32806	
2057	0	32788	
2058	0	32808	
2059	0	32760	
2060	0	32760	
2061	0	32804	
2062	0	32852	
2063	0	32820	
2064	0	32774	
2065	0	32792	
2066	0	32748	
2067	0	32766	
2068	0	32750	
2069	0	32800	
2070	0	32736	
2071	0	32768	
2072	0	32860	
2073	0	32870	
2074	0	32776	
2075	0	32740	
2076	0	32708	
2077	0	32796	
2078	0	32764	
2079	0	32769	
2080	0	32784	
2081	0	32712	
2082	0	32760	
2083	0	32872	
2084	0	32848	
2085	0	32852	
2086	0	32628	
2087	0	32680	
2088	0	32678	
2089	0	32829	
2090	0	32772	
2091	0	32824	
2092	0	32781	
2093	0	32801	
2094	0	32796	
2095	0	32820	
2096	0	32736	
2097	0	32716	
2098	0	32724	
2099	0	32700	
2100	0	32704	
2101	0	32764	
2102	0	32766	
2103	0	32764	
2104	0	32808	
2105	0	32877	
2106	0	32832	
2107	0	32912	
2108	0	32818	
2109	0	32797	
2110	0	32836	
2111	0	32793	
2112	0	32772	
2113	0	32788	
2114	0	32724	
2115	0	32684	
2116	0	32669	
2117	0	32688	
2118	0	32720	
2119	0	32704	
2120	0	32796	
2121	0	32752	
2122	0	32812	
2123	0	32792	
2124	0	32749	
2125	0	32772	
2126	0	32789	
2127	0	32780	
2128	0	32788	
2129	0	32796	
2130	0	32712	
2131	0	32756	
2132	0	32716	
2133	0	32780	
2134	0	32804	
2135	0	32772	
2136	0	32712	
2137	0	32756	
2138	0	32844	
2139	0	32800	
2140	0	32820	
2141	0	32837	
2142	0	32888	
2143	0	32816	
2144	0	32772	
2145	0	32708	
2146	0	32766	
2147	0	32816	
2148	0	32850	
2149	0	32872	
2150	0	32800	
2151	0	32709	
2152	0	32740	
2153	0	32764	
2154	0	32764	
2155	0	32700	
2156	0	32748	
2157	0	32784	
2158	0	32736	
2159	0	32748	
2160	0	32736	
2161	0	32814	
2162	0	32756	
2163	0	32792	
2164	0	32756	
2165	0	32772	
2166	0	32901	
2167	0	32776	
2168	0	32800	
2169	0	32840	
2170	0	32788	
2171	0	32784	
2172	0	32740	
2173	0	32772	
2174	0	32740	
2175	0	32789	
2176	0	32876	
2177	0	32788	
2178	0	32685	
2179	0	32704	
2180	0	32794	
2181	0	32832	
2182	0	32792	
2183	0	32812	
2184	0	32732	
2185	0	32876	
2186	0	32749	
2187	0	32844	
2188	0	32769	
2189	0	32730	
2190	0	32748	
2191	0	32704	
2192	0	32832	
2193	0	32776	
2194	0	32736	
2195	0	32761	
2196	0	32799	
2197	0	32828	
2198	0	32782	
2199	0	32737	
2200	0	32628	
2201	0	32640	
2202	0	32732	
2203	0	32764	
2204	0	32768	
2205	0	32903	
2206	0	32820	
2207	0	32736	
2208	0	32796	
2209	0	32828	
2210	0	32817	
2211	0	32800	
2212	0	32785	
2213	0	32788	
2214	0	32812	
2215	0	32796	
2216	0	32768	
2217	0	32820	
2218	0	32824	
2219	0	32824	
2220	0	32716	
2221	0	32708	
2222	0	32770	
2223	0	32765	
2224	0	32792	
2225	0	32780	
2226	0	32836	
2227	0	32836	
2228	0	32836	
2229	0	32716	
2230	0	32684	
2231	0	32740	
2232	0	32760	
2233	0	32808	
2234	0	32828	
2235	0	32792	
2236	0	32801	
2237	0	32824	
2238	0	32840	
2239	0	32824	
2240	0	32752	
2241	0	32792	
2242	0	32796	
2243	0	32756	
2244	0	32776	
2245	0	32796	
2246	0	32797	
2247	0	32736	
2248	0	32780	
2249	0	32792	
2250	0	32752	
2251	0	32797	
2252	0	32776	
2253	0	32776	
2254	0	32804	
2255	0	32820	
2256	0	32808	
2257	0	32740	
2258	0	32732	
2259	0	32810	
2260	0	32785	
2261	0	32812	
2262	0	32736	
2263	0	32756	
2264	0	32684	
2265	0	32825	
2266	0	32792	
2267	0	32780	
2268	0	32800	
2269	0	32764	
2270	0	32828	
2271	0	32756	
2272	0	32764	
2273	0	32838	
2274	0	32896	
2275	0	32904	
2276	0	32757	
2277	0	32680	
2278	0	32696	
2279	0	32772	
2280	0	32796	
2281	0	32756	
2282	0	32656	
2283	0	32724	
2284	0	32812	
2285	0	32852	
2286	0	32840	
2287	0	32760	
2288	0	32828	
2289	0	32793	
2290	0	32772	
2291	0	32773	
2292	0	32832	
2293	0	32900	
2294	0	32776	
2295	0	32760	
2296	0	32792	
2297	0	32744	
2298	0	32753	
2299	0	32656	
2300	0	32712	
2301	0	32740	
2302	0	32760	
2303	0	32756	
2304	0	32740	
2305	0	32780	
2306	0	32852	
2307	0	32816	
2308	0	32732	
2309	0	32796	
2310	0	32760	
2311	0	32788	
2312	0	32784	
2313	0	32784	
2314	0	32766	
2315	0	32824	
2316	0	32776	
2317	0	32836	
2318	0	32752	
2319	0	32764	
2320	0	32800	
2321	0	32785	
2322	0	32760	
2323	0	32776	
2324	0	32816	
2325	0	32784	
2326	0	32752	
2327	0	32732	
2328	0	32788	
2329	0	32804	
2330	0	32828	
2331	0	32804	
2332	0	32788	
2333	0	32860	
2334	0	32798	
2335	0	32788	
2336	0	32832	
2337	0	32732	
2338	0	32736	
2339	0	32696	
2340	0	32692	
2341	0	32776	
2342	0	32796	
2343	0	32780	
2344	0	32824	
2345	0	32808	
2346	0	32844	
2347	0	32820	
2348	0	32820	
2349	0	32868	
2350	0	32836	
2351	0	32748	
2352	0	32752	
2353	0	32753	
2354	0	32744	
2355	0	32824	
2356	0	32780	
2357	0	32900	
2358	0	32672	
2359	0	32724	
2360	0	32712	
2361	0	32836	
2362	0	32840	
2363	0	32764	
2364	0	32772	
2365	0	32805	
2366	0	32820	
2367	0	32756	
2368	0	32808	
2369	0	32744	
2370	0	32849	
2371	0	32768	
2372	0	32816	
2373	0	32720	
2374	0	32788	
2375	0	32748	
2376	0	32796	
2377	0	32800	
2378	0	32800	
2379	0	32756	
2380	0	32736	
2381	0	32756	
2382	0	32740	
2383	0	32812	
2384	0	32760	
2385	0	32720	
2386	0	32798	
2387	0	32952	
2388	0	32828	
2389	0	32764	
2390	0	32756	
2391	0	32720	
2392	0	32716	
2393	0	32884	
2394	0	32896	
2395	0	32828	
2396	0	32660	
2397	0	32744	
2398	0	32692	
2399	0	32752	
2400	0	32756	
2401	0	32760	
2402	0	32730	
2403	0	32712	
2404	0	32768	
2405	0	32832	
2406	0	32836	
2407	0	32776	
2408	0	32792	
2409	0	32826	
2410	0	32782	
2411	0	32744	
2412	0	32828	
2413	0	32824	
2414	0	32860	
2415	0	32764	
2416	0	32700	
2417	0	32724	
2418	0	32712	
2419	0	32692	
2420	0	32774	
2421	0	32772	
2422	0	32748	
2423	0	32876	
2424	0	32846	
2425	0	32800	
2426	0	32778	
2427	0	32812	
2428	0	32852	
2429	0	32825	
2430	0	32704	
2431	0	32824	
2432	0	32836	
2433	0	32780	
2434	0	32748	
2435	0	32708	
2436	0	32776	
2437	0	32752	
2438	0	32760	
2439	0	32736	
2440	0	32717	
2441	0	32772	
2442	0	32796	
2443	0	32768	
2444	0	32784	
2445	0	32816	
2446	0	32836	
2447	0	32812	
2448	0	32780	
2449	0	32792	
2450	0	32804	
2451	0	32802	
2452	0	32864	
2453	0	32837	
2454	0	32848	
2455	0	32812	
2456	0	32768	
2457	0	32765	
2458	0	32696	
2459	0	32740	
2460	0	32688	
2461	0	32778	
2462	0	32676	
2463	0	32673	
2464	0	32700	
2465	0	32700	
2466	0	32724	
2467	0	32724	
2468	0	32724	
2469	0	32740	
2470	0	32736	
2471	0	32800	
2472	0	32780	
2473	0	32704	
2474	0	32809	
2475	0	32902	
2476	0	32832	
2477	0	32848	
2478	0	32796	
2479	0	32893	
2480	0	32852	
2481	0	32836	
2482	0	32812	
2483	0	32852	
2484	0	32808	
2485	0	32768	
2486	0	32720	
2487	0	32760	
2488	0	32888	
2489	0	32852	
2490	0	32792	
2491	0	32828	
2492	0	32808	
2493	0	32806	
2494	0	32694	
2495	0	32704	
2496	0	32756	
2497	0	32716	
2498	0	32756	
2499	0	32777	
2500	0	32738	
2501	0	32764	
2502	0	32757	
2503	0	32808	
2504	0	32772	
2505	0	32768	
2506	0	32848	
2507	0	32844	
2508	0	32792	
2509	0	32788	
2510	0	32768	
2511	0	32784	
2512	0	32773	
2513	0	32684	
2514	0	32628	
2515	0	32677	
2516	0	32848	
2517	0	32808	
2518	0	32757	
2519	0	32748	
2520	0	32808	
2521	0	32740	
2522	0	32760	
2523	0	32796	
2524	0	32792	
2525	0	32825	
2526	0	32836	
2527	0	32796	
2528	0	32844	
2529	0	32864	
2530	0	32812	
2531	0	32796	
2532	0	32812	
2533	0	32808	
2534	0	32792	
2535	0	32852	
2536	0	32752	
2537	0	32736	
2538	0	32712	
2539	0	32728	
2540	0	32744	
2541	0	32740	
2542	0	32774	
2543	0	32748	
2544	0	32798	
2545	0	32836	
2546	0	32784	
2547	0	32816	
2548	0	32800	
2549	0	32848	
2550	0	32793	
2551	0	32740	
2552	0	32784	
2553	0	32784	
2554	0	32753	
2555	0	32728	
2556	0	32752	
2557	0	32840	
2558	0	32780	
2559	0	32688	
2560	0	32756	
2561	0	32749	
2562	0	32720	
2563	0	32792	
2564	0	32836	
2565	0	32768	
2566	0	32736	
2567	0	32764	
2568	0	32856	
2569	0	32868	
2570	0	32800	
2571	0	32813	
2572	0	32800	
2573	0	32792	
2574	0	32775	
2575	0	32748	
2576	0	32796	
2577	0	32869	
2578	0	32708	
2579	0	32685	
2580	0	32648	
2581	0	32681	
2582	0	32822	
2583	0	32736	
2584	0	32784	
2585	0	32832	
2586	0	32924	
2587	0	32920	
2588	0	32976	
2589	0	32892	
2590	0	32744	
2591	0	32628	
2592	0	32724	
2593	0	32737	
2594	0	32825	
2595	0	32788	
2596	0	32772	
2597	0	32792	
2598	0	32737	
2599	0	32756	
2600	0	32704	
2601	0	32748	
2602	0	32812	
2603	0	32762	
2604	0	32804	
2605	0	32788	
2606	0	32800	
2607	0	32800	
2608	0	32804	
2609	0	32780	
2610	0	32748	
2611	0	32708	
2612	0	32744	
2613	0	32734	
2614	0	32829	
2615	0	32856	
2616	0	32768	
2617	0	32740	
2618	0	32712	
2619	0	32696	
2620	0	32712	
2621	0	32800	
2622	0	32888	
2623	0	32864	
2624	0	32836	
2625	0	32788	
2626	0	32741	
2627	0	32732	
2628	0	32764	
2629	0	32776	
2630	0	32764	
2631	0	32806	
2632	0	32772	
2633	0	32808	
2634	0	32824	
2635	0	32758	
2636	0	32764	
2637	0	32760	
2638	0	32768	
2639	0	32852	
2640	0	32716	
2641	0	32756	
2642	0	32784	
2643	0	32825	
2644	0	32792	
2645	0	32736	
2646	0	32808	
2647	0	32788	
2648	0	32822	
2649	0	32740	
2650	0	32736	
2651	0	32836	
2652	0	32784	
2653	0	32824	
2654	0	32816	
2655	0	32741	
2656	0	32812	
2657	0	32776	
2658	0	32776	
2659	0	32756	
2660	0	32629	
2661	0	32540	
2662	0	32744	
2663	0	32832	
2664	0	32832	
2665	0	32852	
2666	0	32864	
2667	0	32884	
2668	0	32900	
2669	0	32772	
2670	0	32640	
2671	0	32732	
2672	0	32772	
2673	0	32797	
2674	0	32804	
2675	0	32794	
2676	0	32784	
2677	0	32757	
2678	0	32724	
2679	0	32820	
2680	0	32756	
2681	0	32773	
2682	0	32764	
2683	0	32816	
2684	0	32808	
2685	0	32832	
2686	0	32904	
2687	0	32896	
2688	0	32784	
2689	0	32737	
2690	0	32764	
2691	0	32708	
2692	0	32756	
2693	0	32868	
2694	0	32860	
2695	0	32756	
2696	0	32784	
2697	0	32656	
2698	0	32788	
2699	0	32856	
2700	0	32888	
2701	0	32780	
2702	0	32696	
2703	0	32624	
2704	0	32624	
2705	0	32708	
2706	0	32717	
2707	0	32872	
2708	0	32812	
2709	0	32848	
2710	0	32774	
2711	0	32780	
2712	0	32820	
2713	0	32856	
2714	0	32760	
2715	0	32700	
2716	0	32740	
2717	0	32756	
2718	0	32756	
2719	0	32704	
2720	0	32816	
2721	0	32820	
2722	0	32758	
2723	0	32808	
2724	0	32824	
2725	0	32784	
2726	0	32777	
2727	0	32896	
2728	0	32820	
2729	0	32784	
2730	0	32768	
2731	0	32776	
2732	0	32736	
2733	0	32772	
2734	0	32820	
2735	0	32812	
2736	0	32772	
2737	0	32764	
2738	0	32748	
2739	0	32772	
2740	0	32764	
2741	0	32752	
2742	0	32820	
2743	0	32808	
2744	0	32824	
2745	0	32824	
2746	0	32772	
2747	0	32764	
2748	0	32736	
2749	0	32728	
2750	0	32776	
2751	0	32773	
2752	0	32820	
2753	0	32748	
2754	0	32736	
2755	0	32716	
2756	0	32756	
2757	0	32768	
2758	0	32720	
2759	0	32816	
2760	0	32756	
2761	0	32684	
2762	0	32784	
2763	0	32796	
2764	0	32852	
2765	0	32892	
2766	0	32900	
2767	0	32768	
2768	0	32800	
2769	0	32740	
2770	0	32736	
2771	0	32848	
2772	0	32804	
2773	0	32712	
2774	0	32769	
2775	0	32740	
2776	0	32780	
2777	0	32804	
2778	0	32772	
2779	0	32776	
2780	0	32696	
2781	0	32748	
2782	0	32812	
2783	0	32744	
2784	0	32788	
2785	0	32772	
2786	0	32784	
2787	0	32732	
2788	0	32800	
2789	0	32824	
2790	0	32820	
2791	0	32853	
2792	0	32788	
2793	0	32828	
2794	0	32744	
2795	0	32796	
2796	0	32792	
2797	0	32800	
2798	0	32724	
2799	0	32700	
2800	0	32688	
2801	0	32676	
2802	0	32676	
2803	0	32832	
2804	0	32818	
2805	0	32804	
2806	0	32693	
2807	0	32740	
2808	0	32816	
2809	0	32840	
2810	0	32852	
2811	0	32824	
2812	0	32781	
2813	0	32804	
2814	0	32765	
2815	0	32796	
2816	0	32788	
2817	0	32806	
2818	0	32732	
2819	0	32766	
2820	0	32736	
2821	0	32716	
2822	0	32772	
2823	0	32780	
2824	0	32772	
2825	0	32745	
2826	0	32832	
2827	0	32868	
2828	0	32788	
2829	0	32836	
2830	0	32736	
2831	0	32804	
2832	0	32764	
2833	0	32808	
2834	0	32832	
2835	0	32772	
2836	0	32832	
2837	0	32788	
2838	0	32736	
2839	0	32652	
2840	0	32788	
2841	0	32800	
2842	0	32777	
2843	0	32708	
2844	0	32776	
2845	0	32800	
2846	0	32797	
2847	0	32796	
2848	0	32760	
2849	0	32820	
2850	0	32846	
2851	0	32808	
2852	0	32832	
2853	0	32744	
2854	0	32776	
2855	0	32832	
2856	0	32804	
2857	0	32778	
2858	0	32732	
2859	0	32824	
2860	0	32704	
2861	0	32744	
2862	0	32788	
2863	0	32717	
2864	0	32760	
2865	0	32804	
2866	0	32761	
2867	0	32748	
2868	0	32784	
2869	0	32808	
2870	0	32800	
2871	0	32760	
2872	0	32756	
2873	0	32772	
2874	0	32748	
2875	0	32904	
2876	0	32728	
2877	0	32748	
2878	0	32740	
2879	0	32764	
2880	0	32820	
2881	0	32812	
2882	0	32764	
2883	0	32797	
2884	0	32848	
2885	0	32792	
2886	0	32776	
2887	0	32748	
2888	0	32782	
2889	0	32833	
2890	0	32772	
2891	0	32776	
2892	0	32849	
2893	0	32780	
2894	0	32876	
2895	0	32862	
2896	0	32888	
2897	0	32860	
2898	0	32856	
2899	0	32724	
2900	0	32688	
2901	0	32596	
2902	0	32590	
2903	0	32580	
2904	0	32780	
2905	0	32844	
2906	0	32872	
2907	0	32808	
2908	0	32816	
2909	0	32812	
2910	0	32724	
2911	0	32804	
2912	0	32800	
2913	0	32740	
2914	0	32824	
2915	0	32776	
2916	0	32788	
2917	0	32776	
2918	0	32788	
2919	0	32780	
2920	0	32788	
2921	0	32740	
2922	0	32616	
2923	0	32668	
2924	0	32772	
2925	0	32796	
2926	0	32852	
2927	0	32824	
2928	0	32788	
2929	0	32800	
2930	0	32780	
2931	0	32768	
2932	0	32756	
2933	0	32816	
2934	0	32768	
2935	0	32820	
2936	0	32772	
2937	0	32740	
2938	0	32708	
2939	0	32736	
2940	0	32756	
2941	0	32800	
2942	0	32772	
2943	0	32758	
2944	0	32760	
2945	0	32792	
2946	0	32760	
2947	0	32824	
2948	0	32828	
2949	0	32776	
2950	0	32808	
2951	0	32756	
2952	0	32792	
2953	0	32888	
2954	0	32840	
2955	0	32750	
2956	0	32750	
2957	0	32836	
2958	0	32856	
2959	0	32760	
2960	0	32696	
2961	0	32688	
2962	0	32720	
2963	0	32748	
2964	0	32800	
2965	0	32704	
2966	0	32756	
2967	0	32812	
2968	0	32808	
2969	0	32808	
2970	0	32820	
2971	0	32812	
2972	0	32782	
2973	0	32748	
2974	0	32736	
2975	0	32768	
2976	0	32814	
2977	0	32774	
2978	0	32740	
2979	0	32700	
2980	0	32793	
2981	0	32844	
2982	0	32828	
2983	0	32748	
2984	0	32736	
2985	0	32820	
2986	0	32780	
2987	0	32800	
2988	0	32828	
2989	0	32880	
2990	0	32916	
2991	0	32868	
2992	0	32724	
2993	0	32652	
2994	0	32660	
2995	0	32724	
2996	0	32748	
2997	0	32728	
2998	0	32716	
2999	0	32848	
3000	0	32812	
3001	0	32796	
3002	0	32758	
3003	0	32776	
3004	0	32844	
3005	0	32796	
3006	0	32740	
3007	0	32724	
3008	0	32852	
3009	0	32848	
3010	0	32768	
3011	0	32724	
3012	0	32748	
3013	0	32780	
3014	0	32852	
3015	0	32768	
3016	0	32724	
3017	0	32820	
3018	0	32852	
3019	0	32832	
3020	0	32832	
3021	0	32740	
3022	0	32760	
3023	0	32724	
3024	0	32700	
3025	0	32748	
3026	0	32797	
3027	0	32760	
3028	0	32816	
3029	0	32760	
3030	0	32824	
3031	0	32817	
3032	0	32828	
3033	0	32776	
3034	0	32820	
3035	0	32860	
3036	0	32724	
3037	0	32806	
3038	0	32780	
3039	0	32756	
3040	0	32760	
3041	0	32730	
3042	0	32717	
3043	0	32772	
3044	0	32776	
3045	0	32872	
3046	0	32820	
3047	0	32784	
3048	0	32760	
3049	0	32756	
3050	0	32772	
3051	0	32812	
3052	0	32832	
3053	0	32781	
3054	0	32769	
3055	0	32761	
3056	0	32744	
3057	0	32728	
3058	0	32744	
3059	0	32768	
3060	0	32780	
3061	0	32796	
3062	0	32716	
3063	0	32740	
3064	0	32804	
3065	0	32796	
3066	0	32724	
3067	0	32820	
3068	0	32828	
3069	0	32800	
3070	0	32812	
3071	0	32716	
3072	0	32712	
3073	0	32748	
3074	0	32828	
3075	0	32804	
3076	0	32804	
3077	0	32788	
3078	0	32769	
3079	0	32792	
3080	0	32808	
3081	0	32764	
3082	0	32780	
3083	0	32724	
3084	0	32725	
3085	0	32896	
3086	0	32785	
3087	0	32768	
3088	0	32820	
3089	0	32764	
3090	0	32740	
3091	0	32692	
3092	0	32804	
3093	0	32844	
3094	0	32824	
3095	0	32820	
3096	0	32804	
3097	0	32748	
3098	0	32740	
3099	0	32772	
3100	0	32822	
3101	0	32736	
3102	0	32728	
3103	0	32724	
3104	0	32752	
3105	0	32749	
3106	0	32752	
3107	0	32828	
3108	0	32868	
3109	0	32768	
3110	0	32800	
3111	0	32796	
3112	0	32776	
3113	0	32749	
3114	0	32775	
3115	0	32737	
3116	0	32772	
3117	0	32844	
3118	0	32808	
3119	0	32792	
3120	0	32796	
3121	0	32776	
3122	0	32768	
3123	0	32812	
3124	0	32788	
3125	0	32728	
3126	0	32772	
3127	0	32824	
3128	0	32792	
3129	0	32800	
3130	0	32844	
3131	0	32780	
3132	0	32808	
3133	0	32757	
3134	0	32780	
3135	0	32833	
3136	0	32732	
3137	0	32768	
3138	0	32758	
3139	0	32792	
3140	0	32728	
3141	0	32716	
3142	0	32724	
3143	0	32764	
3144	0	32744	
3145	0	32812	
3146	0	32808	
3147	0	32812	
3148	0	32780	
3149	0	32756	
3150	0	32752	
3151	0	32772	
3152	0	32764	
3153	0	32804	
3154	0	32772	
3155	0	32796	
3156	0	32816	
3157	0	32752	
3158	0	32756	
3159	0	32828	
3160	0	32812	
3161	0	32809	
3162	0	32796	
3163	0	32780	
3164	0	32736	
3165	0	32750	
3166	0	32752	
3167	0	32848	
3168	0	32856	
3169	0	32812	
3170	0	32785	
3171	0	32736	
3172	0	32708	
3173	0	32792	
3174	0	32820	
3175	0	32745	
3176	0	32856	
3177	0	32806	
3178	0	32741	
3179	0	32820	
3180	0	32796	
3181	0	32772	
3182	0	32800	
3183	0	32740	
3184	0	32760	
3185	0	32776	
3186	0	32764	
3187	0	32764	
3188	0	32741	
3189	0	32790	
3190	0	32780	
3191	0	32748	
3192	0	32788	
3193	0	32817	
3194	0	32800	
3195	0	32740	
3196	0	32816	
3197	0	32736	
3198	0	32756	
3199	0	32800	
3200	0	32798	
3201	0	32756	
3202	0	32752	
3203	0	32788	
3204	0	32772	
3205	0	32804	
3206	0	32658	
3207	0	32740	
3208	0	32828	
3209	0	32824	
3210	0	32825	
3211	0	32772	
3212	0	32824	
3213	0	32809	
3214	0	32848	
3215	0	32732	
3216	0	32777	
3217	0	32720	
3218	0	32744	
3219	0	32704	
3220	0	32788	
3221	0	32760	
3222	0	32729	
3223	0	32750	
3224	0	32860	
3225	0	32852	
3226	0	32837	
3227	0	32828	
3228	0	32736	
3229	0	32768	
3230	0	32720	
3231	0	32824	
3232	0	32836	
3233	0	32784	
3234	0	32794	
3235	0	32789	
3236	0	32736	
3237	0	32761	
3238	0	32752	
3239	0	32748	
3240	0	32776	
3241	0	32784	
3242	0	32780	
3243	0	32752	
3244	0	32780	
3245	0	32800	
3246	0	32808	
3247	0	32816	
3248	0	32876	
3249	0	32764	
3250	0	32808	
3251	0	32792	
3252	0	32792	
3253	0	32796	
3254	0	32780	
3255	0	32760	
3256	0	32788	
3257	0	32708	
3258	0	32734	
3259	0	32721	
3260	0	32780	
3261	0	32812	
3262	0	32888	
3263	0	32864	
3264	0	32800	
3265	0	32780	
3266	0	32784	
3267	0	32796	
3268	0	32740	
3269	0	32740	
3270	0	32757	
3271	0	32736	
3272	0	32796	
3273	0	32824	
3274	0	32792	
3275	0	32784	
3276	0	32760	
3277	0	32784	
3278	0	32760	
3279	0	32844	
3280	0	32796	
3281	0	32800	
3282	0	32806	
3283	0	32833	
3284	0	32808	
3285	0	32832	
3286	0	32844	
3287	0	32696	
3288	0	32732	
3289	0	32752	
3290	0	32720	
3291	0	32776	
3292	0	32824	
3293	0	32848	
3294	0	32773	
3295	0	32793	
3296	0	32748	
3297	0	32656	
3298	0	32680	
3299	0	32638	
3300	0	32698	
3301	0	32633	
3302	0	32816	
3303	0	32770	
3304	0	32828	
3305	0	32928	
3306	0	32844	
3307	0	32820	
3308	0	32816	
3309	0	32800	
3310	0	32900	
3311	0	32796	
3312	0	32728	
3313	0	32856	
3314	0	32784	
3315	0	32828	
3316	0	32720	
3317	0	32774	
3318	0	32800	
3319	0	32782	
3320	0	32772	
3321	0	32828	
3322	0	32804	
3323	0	32852	
3324	0	32844	
3325	0	32760	
3326	0	32744	
3327	0	32705	
3328	0	32756	
3329	0	32728	
3330	0	32684	
3331	0	32729	
3332	0	32820	
3333	0	32900	
3334	0	32828	
3335	0	32728	
3336	0	32724	
3337	0	32792	
3338	0	32772	
3339	0	32796	
3340	0	32728	
3341	0	32796	
3342	0	32776	
3343	0	32676	
3344	0	32780	
3345	0	32740	
3346	0	32764	
3347	0	32764	
3348	0	32748	
3349	0	32720	
3350	0	32818	
3351	0	32884	
3352	0	32848	
3353	0	32756	
3354	0	32744	
3355	0	32748	
3356	0	32832	
3357	0	32725	
3358	0	32740	
3359	0	32873	
3360	0	32877	
3361	0	32728	
3362	0	32764	
3363	0	32750	
3364	0	32780	
3365	0	32812	
3366	0	32796	
3367	0	32754	
3368	0	32716	
3369	0	32740	
3370	0	32761	
3371	0	32724	
3372	0	32789	
3373	0	32808	
3374	0	32788	
3375	0	32758	
3376	0	32800	
3377	0	32796	
3378	0	32808	
3379	0	32760	
3380	0	32716	
3381	0	32788	
3382	0	32780	
3383	0	32828	
3384	0	32808	
3385	0	32798	
3386	0	32772	
3387	0	32772	
3388	0	32824	
3389	0	32884	
3390	0	32800	
3391	0	32860	
3392	0	32796	
3393	0	32748	
3394	0	32740	
3395	0	32680	
3396	0	32664	
3397	0	32780	
3398	0	32744	
3399	0	32764	
3400	0	32780	
3401	0	32868	
3402	0	32832	
3403	0	32832	
3404	0	32801	
3405	0	32756	
3406	0	32676	
3407	0	32708	
3408	0	32792	
3409	0	32744	
3410	0	32770	
3411	0	32788	
3412	0	32812	
3413	0	32817	
3414	0	32796	
3415	0	32830	
3416	0	32808	
3417	0	32766	
3418	0	32704	
3419	0	32796	
3420	0	32804	
3421	0	32772	
3422	0	32826	
3423	0	32820	
3424	0	32864	
3425	0	32852	
3426	0	32800	
3427	0	32686	
3428	0	32732	
3429	0	32824	
3430	0	32853	
3431	0	32800	
3432	0	32732	
3433	0	32776	
3434	0	32736	
3435	0	32637	
3436	0	32684	
3437	0	32768	
3438	0	32729	
3439	0	32788	
3440	0	32836	
3441	0	32788	
3442	0	32809	
3443	0	32784	
3444	0	32780	
3445	0	32852	
3446	0	32748	
3447	0	32744	
3448	0	32760	
3449	0	32764	
3450	0	32776	
3451	0	32740	
3452	0	32808	
3453	0	32804	
3454	0	32820	
3455	0	32680	
3456	0	32812	
3457	0	32801	
3458	0	32804	
3459	0	32740	
3460	0	32844	
3461	0	32792	
3462	0	32724	
3463	0	32720	
3464	0	32736	
3465	0	32780	
3466	0	32772	
3467	0	32784	
3468	0	32817	
3469	0	32765	
3470	0	32732	
3471	0	32766	
3472	0	32806	
3473	0	32780	
3474	0	32772	
3475	0	32688	
3476	0	32734	
3477	0	32780	
3478	0	32844	
3479	0	32860	
3480	0	32820	
3481	0	32804	
3482	0	32752	
3483	0	32756	
3484	0	32712	
3485	0	32748	
3486	0	32748	
3487	0	32768	
3488	0	32806	
3489	0	32768	
3490	0	32732	
3491	0	32788	
3492	0	32796	
3493	0	32792	
3494	0	32748	
3495	0	32668	
3496	0	32656	
3497	0	32693	
3498	0	32784	
3499	0	32812	
3500	0	32780	
3501	0	32828	
3502	0	32828	
3503	0	32876	
3504	0	32900	
3505	0	32846	
3506	0	32932	
3507	0	32878	
3508	0	32792	
3509	0	32736	
3510	0	32773	
3511	0	32854	
3512	0	32876	
3513	0	32808	
3514	0	32780	
3515	0	32724	
3516	0	32680	
3517	0	32700	
3518	0	32712	
3519	0	32716	
3520	0	32724	
3521	0	32766	
3522	0	32772	
3523	0	32756	
3524	0	32676	
3525	0	32688	
3526	0	32780	
3527	0	32816	
3528	0	32820	
3529	0	32781	
3530	0	32824	
3531	0	32708	
3532	0	32796	
3533	0	32816	
3534	0	32796	
3535	0	32830	
3536	0	32844	
3537	0	32745	
3538	0	32828	
3539	0	32794	
3540	0	32724	
3541	0	32776	
3542	0	32756	
3543	0	32780	
3544	0	32806	
3545	0	32792	
3546	0	32820	
3547	0	32780	
3548	0	32804	
3549	0	32724	
3550	0	32784	
3551	0	32724	
3552	0	32836	
3553	0	32717	
3554	0	32780	
3555	0	32800	
3556	0	32780	
3557	0	32780	
3558	0	32688	
3559	0	32804	
3560	0	32716	
3561	0	32772	
3562	0	32748	
3563	0	32764	
3564	0	32788	
3565	0	32804	
3566	0	32788	
3567	0	32837	
3568	0	32916	
3569	0	32857	
3570	0	32732	
3571	0	32756	
3572	0	32764	
3573	0	32688	
3574	0	32736	
3575	0	32722	
3576	0	32768	
3577	0	32788	
3578	0	32760	
3579	0	32840	
3580	0	32820	
3581	0	32764	
3582	0	32773	
3583	0	32847	
3584	0	32799	
3585	0	32812	
3586	0	32760	
3587	0	32760	
3588	0	32831	
3589	0	32764	
3590	0	32740	
3591	0	32716	
3592	0	32712	
3593	0	32820	
3594	0	32752	
3595	0	32804	
3596	0	32756	
3597	0	32629	
3598	0	32685	
3599	0	32684	
3600	0	32852	
3601	0	32836	
3602	0	32725	
3603	0	32860	
3604	0	32844	
3605	0	32900	
3606	0	32884	
3607	0	32844	
3608	0	32753	
3609	0	32708	
3610	0	32768	
3611	0	32772	
3612	0	32784	
3613	0	32824	
3614	0	32732	
3615	0	32704	
3616	0	32795	
3617	0	32730	
3618	0	32744	
3619	0	32808	
3620	0	32824	
3621	0	32800	
3622	0	32740	
3623	0	32788	
3624	0	32788	
3625	0	32848	
3626	0	32762	
3627	0	32808	
3628	0	32740	
3629	0	32700	
3630	0	32760	
3631	0	32776	
3632	0	32752	
3633	0	32780	
3634	0	32740	
3635	0	32816	
3636	0	32794	
3637	0	32756	
3638	0	32796	
3639	0	32744	
3640	0	32800	
3641	0	32728	
3642	0	32816	
3643	0	32780	
3644	0	32748	
3645	0	32784	
3646	0	32872	
3647	0	32848	
3648	0	32804	
3649	0	32770	
3650	0	32808	
3651	0	32738	
3652	0	32740	
3653	0	32780	
3654	0	32768	
3655	0	32696	
3656	0	32808	
3657	0	32784	
3658	0	32816	
3659	0	32761	
3660	0	32814	
3661	0	32780	
3662	0	32816	
3663	0	32774	
3664	0	32856	
3665	0	32813	
3666	0	32854	
3667	0	32741	
3668	0	32772	
3669	0	32748	
3670	0	32772	
3671	0	32749	
3672	0	32792	
3673	0	32704	
3674	0	32784	
3675	0	32704	
3676	0	32726	
3677	0	32721	
3678	0	32752	
3679	0	32828	
3680	0	32860	
3681	0	32836	
3682	0	32852	
3683	0	32792	
3684	0	32781	
3685	0	32784	
3686	0	32844	
3687	0	32800	
3688	0	32820	
3689	0	32728	
3690	0	32821	
3691	0	32856	
3692	0	32788	
3693	0	32757	
3694	0	32788	
3695	0	32692	
3696	0	32597	
3697	0	32684	
3698	0	32840	
3699	0	32904	
3700	0	32852	
3701	0	32832	
3702	0	32832	
3703	0	32832	
3704	0	32692	
3705	0	32740	
3706	0	32716	
3707	0	32782	
3708	0	32766	
3709	0	32712	
3710	0	32708	
3711	0	32844	
3712	0	32888	
3713	0	32828	
3714	0	32760	
3715	0	32744	
3716	0	32748	
3717	0	32766	
3718	0	32772	
3719	0	32684	
3720	0	32700	
3721	0	32740	
3722	0	32784	
3723	0	32744	
3724	0	32792	
3725	0	32764	
3726	0	32854	
3727	0	32868	
3728	0	32870	
3729	0	32792	
3730	0	32724	
3731	0	32852	
3732	0	32840	
3733	0	32832	
3734	0	32824	
3735	0	32820	
3736	0	32744	
3737	0	32757	
3738	0	32701	
3739	0	32700	
3740	0	32789	
3741	0	32740	
3742	0	32728	
3743	0	32764	
3744	0	32784	
3745	0	32784	
3746	0	32852	
3747	0	32832	
3748	0	32790	
3749	0	32801	
3750	0	32817	
3751	0	32752	
3752	0	32720	
3753	0	32808	
3754	0	32756	
3755	0	32773	
3756	0	32773	
3757	0	32753	
3758	0	32754	
3759	0	32792	
3760	0	32824	
3761	0	32841	
3762	0	32832	
3763	0	32781	
3764	0	32708	
3765	0	32704	
3766	0	32768	
3767	0	32792	
3768	0	32756	
3769	0	32798	
3770	0	32741	
3771	0	32908	
3772	0	32848	
3773	0	32704	
3774	0	32772	
3775	0	32860	
3776	0	32856	
3777	0	32832	
3778	0	32686	
3779	0	32644	
3780	0	32705	
3781	0	32784	
3782	0	32840	
3783	0	32824	
3784	0	32840	
3785	0	32840	
3786	0	32780	
3787	0	32760	
3788	0	32864	
3789	0	32732	
3790	0	32812	
3791	0	32784	
3792	0	32868	
3793	0	32728	
3794	0	32808	
3795	0	32704	
3796	0	32661	
3797	0	32724	
3798	0	32732	
3799	0	32775	
3800	0	32784	
3801	0	32800	
3802	0	32788	
3803	0	32808	
3804	0	32720	
3805	0	32808	
3806	0	32796	
3807	0	32800	
3808	0	32746	
3809	0	32832	
3810	0	32880	
3811	0	32748	
3812	0	32764	
3813	0	32844	
3814	0	32812	
3815	0	32788	
3816	0	32712	
3817	0	32760	
3818	0	32756	
3819	0	32768	
3820	0	32820	
3821	0	32732	
3822	0	32804	
3823	0	32800	
3824	0	32828	
3825	0	32836	
3826	0	32792	
3827	0	32748	
3828	0	32704	
3829	0	32728	
3830	0	32748	
3831	0	32708	
3832	0	32788	
3833	0	32872	
3834	0	32744	
3835	0	32760	
3836	0	32748	
3837	0	32760	
3838	0	32716	
3839	0	32740	
3840	0	32780	
3841	0	32788	
3842	0	32856	
3843	0	32808	
3844	0	32736	
3845	0	32784	
3846	0	32720	
3847	0	32776	
3848	0	32764	
3849	0	32742	
3850	0	32832	
3851	0	32858	
3852	0	32760	
3853	0	32792	
3854	0	32708	
3855	0	32672	
3856	0	32756	
3857	0	32848	
3858	0	32880	
3859	0	32732	
3860	0	32764	
3861	0	32780	
3862	0	32864	
3863	0	32852	
3864	0	32824	
3865	0	32820	
3866	0	32812	
3867	0	32749	
3868	0	32756	
3869	0	32728	
3870	0	32748	
3871	0	32740	
3872	0	32753	
3873	0	32852	
3874	0	32764	
3875	0	32766	
3876	0	32636	
3877	0	32632	
3878	0	32765	
3879	0	32856	
3880	0	32901	
3881	0	32736	
3882	0	32744	
3883	0	32744	
3884	0	32788	
3885	0	32840	
3886	0	32900	
3887	0	32960	
3888	0	32884	
3889	0	32892	
3890	0	32802	
3891	0	32608	
3892	0	32644	
3893	0	32712	
3894	0	32680	
3895	0	32816	
3896	0	32768	
3897	0	32680	
3898	0	32740	
3899	0	32732	
3900	0	32784	
3901	0	32896	
3902	0	32808	
3903	0	32793	
3904	0	32776	
3905	0	32824	
3906	0	32884	
3907	0	32752	
3908	0	32780	
3909	0	32836	
3910	0	32788	
3911	0	32772	
3912	0	32760	
3913	0	32756	
3914	0	32796	
3915	0	32775	
3916	0	32789	
3917	0	32728	
3918	0	32736	
3919	0	32804	
3920	0	32724	
3921	0	32788	
3922	0	32762	
3923	0	32764	
3924	0	32820	
3925	0	32848	
3926	0	32784	
3927	0	32777	
3928	0	32760	
3929	0	32756	
3930	0	32760	
3931	0	32760	
3932	0	32729	
3933	0	32760	
3934	0	32762	
3935	0	32764	
3936	0	32798	
3937	0	32804	
3938	0	32828	
3939	0	32816	
3940	0	32756	
3941	0	32840	
3942	0	32839	
3943	0	32857	
3944	0	32732	
3945	0	32709	
3946	0	32748	
3947	0	32724	
3948	0	32800	
3949	0	32828	
3950	0	32740	
3951	0	32724	
3952	0	32772	
3953	0	32688	
3954	0	32776	
3955	0	32840	
3956	0	32781	
3957	0	32768	
3958	0	32744	
3959	0	32768	
3960	0	32888	
3961	0	32872	
3962	0	32816	
3963	0	32772	
3964	0	32764	
3965	0	32760	
3966	0	32824	
3967	0	32802	
3968	0	32743	
3969	0	32792	
3970	0	32732	
3971	0	32661	
3972	0	32752	
3973	0	32833	
3974	0	32808	
3975	0	32800	
3976	0	32752	
3977	0	32726	
3978	0	32660	
3979	0	32632	
3980	0	32864	
3981	0	32808	
3982	0	32788	
3983	0	32816	
3984	0	32860	
3985	0	32800	
3986	0	32800	
3987	0	32762	
3988	0	32717	
3989	0	32836	
3990	0	32880	
3991	0	32792	
3992	0	32820	
3993	0	32768	
3994	0	32704	
3995	0	32740	
3996	0	32804	
3997	0	32736	
3998	0	32740	
3999	0	32796	
4000	0	32885	
4001	0	32788	
4002	0	32768	
4003	0	32838	
4004	0	32704	
4005	0	32812	
4006	0	32733	
4007	0	32736	
4008	0	32824	
4009	0	32800	
4010	0	32724	
4011	0	32780	
4012	0	32844	
4013	0	32748	
4014	0	32780	
4015	0	32740	
4016	0	32704	
4017	0	32780	
4018	0	32752	
4019	0	32792	
4020	0	32732	
4021	0	32780	
4022	0	32720	
4023	0	32816	
4024	0	32839	
4025	0	32804	
4026	0	32812	
4027	0	32776	
4028	0	32744	
4029	0	32741	
4030	0	32813	
4031	0	32784	
4032	0	32805	
4033	0	32752	
4034	0	32736	
4035	0	32840	
4036	0	32776	
4037	0	32799	
4038	0	32748	
4039	0	32708	
4040	0	32752	
4041	0	32792	
4042	0	32726	
4043	0	32752	
4044	0	32800	
4045	0	32820	
4046	0	32832	
4047	0	32836	
4048	0	32820	
4049	0	32788	
4050	0	32776	
4051	0	32744	
4052	0	32760	
4053	0	32708	
4054	0	32751	
4055	0	32740	
4056	0	32720	
4057	0	32700	
4058	0	32848	
4059	0	32832	
4060	0	32708	
4061	0	32732	
4062	0	32812	
4063	0	32900	
4064	0	32834	
4065	0	32792	
4066	0	32724	
4067	0	32708	
4068	0	32752	
4069	0	32720	
4070	0	32793	
4071	0	32908	
4072	0	32824	
4073	0	32744	
4074	0	32760	
4075	0	32792	
4076	0	32752	
4077	0	32740	
4078	0	32764	
4079	0	32764	
4080	0	32780	
4081	0	32740	
4082	0	32740	
4083	0	32728	
4084	0	32792	
4085	0	32800	
4086	0	32860	
4087	0	32860	
4088	0	32820	
4089	0	32812	
4090	0	32830	
4091	0	32781	
4092	0	32780	
4093	0	32832	
4094	0	32828	
4095	0	32772	
4096	0	32696	
4097	0	32628	
4098	0	32672	
4099	0	32740	
4100	0	32741	
4101	0	32805	
4102	0	32832	
4103	0	32820	
4104	0	32740	
4105	0	32812	
4106	0	32741	
4107	0	32748	
4108	0	32760	
4109	0	32832	
4110	0	32772	
4111	0	32712	
4112	0	32772	
4113	0	32736	
4114	0	32716	
4115	0	32824	
4116	0	32724	
4117	0	32752	
4118	0	32752	
4119	0	32788	
4120	0	32784	
4121	0	32754	
4122	0	32844	
4123	0	32845	
4124	0	32788	
4125	0	32856	
4126	0	32840	
4127	0	32862	
4128	0	32808	
4129	0	32776	
4130	0	32848	
4131	0	32720	
4132	0	32736	
4133	0	32768	
4134	0	32813	
4135	0	32744	
4136	0	32704	
4137	0	32636	
4138	0	32713	
4139	0	32652	
4140	0	32693	
4141	0	32804	
4142	0	32732	
4143	0	32725	
4144	0	32768	
4145	0	32736	
4146	0	32798	
4147	0	32712	
4148	0	32796	
4149	0	32804	
4150	0	32752	
4151	0	32847	
4152	0	32900	
4153	0	32752	
4154	0	32756	
4155	0	32804	
4156	0	32848	
4157	0	32780	
4158	0	32776	
4159	0	32812	
4160	0	32876	
4161	0	32948	
4162	0	32908	
4163	0	32788	
4164	0	32696	
4165	0	32818	
4166	0	32864	
4167	0	32805	
4168	0	32844	
4169	0	32748	
4170	0	32764	
4171	0	32848	
4172	0	32732	
4173	0	32686	
4174	0	32704	
4175	0	32793	
4176	0	32816	
4177	0	32684	
4178	0	32724	
4179	0	32896	
4180	0	32936	
4181	0	32840	
4182	0	32801	
4183	0	32736	
4184	0	32788	
4185	0	32804	
4186	0	32828	
4187	0	32772	
4188	0	32652	
4189	0	32716	
4190	0	32781	
4191	0	32762	
4192	0	32860	
4193	0	32852	
4194	0	32764	
4195	0	32732	
4196	0	32732	
4197	0	32853	
4198	0	32840	
4199	0	32722	
4200	0	32740	
4201	0	32752	
4202	0	32796	
4203	0	32792	
4204	0	32788	
4205	0	32948	
4206	0	32788	
4207	0	32656	
4208	0	32624	
4209	0	32697	
4210	0	32772	
4211	0	32868	
4212	0	32832	
4213	0	32870	
4214	0	32804	
4215	0	32772	
4216	0	32816	
4217	0	32724	
4218	0	32752	
4219	0	32848	
4220	0	32840	
4221	0	32756	
4222	0	32734	
4223	0	32776	
4224	0	32792	
4225	0	32828	
4226	0	32776	
4227	0	32756	
4228	0	32792	
4229	0	32824	
4230	0	32880	
4231	0	32776	
4232	0	32753	
4233	0	32780	
4234	0	32724	
4235	0	32736	
4236	0	32729	
4237	0	32700	
4238	0	32748	
4239	0	32664	
4240	0	32816	
4241	0	32816	
4242	0	32821	
4243	0	32764	
4244	0	32828	
4245	0	32832	
4246	0	32812	
4247	0	32830	
4248	0	32844	
4249	0	32805	
4250	0	32696	
4251	0	32756	
4252	0	32861	
4253	0	32920	
4254	0	32708	
4255	0	32664	
4256	0	32676	
4257	0	32744	
4258	0	32708	
4259	0	32732	
4260	0	32824	
4261	0	32804	
4262	0	32813	
4263	0	32828	
4264	0	32852	
4265	0	32804	
4266	0	32776	
4267	0	32772	
4268	0	32852	
4269	0	32856	
4270	0	32796	
4271	0	32736	
4272	0	32726	
4273	0	32668	
4274	0	32816	
4275	0	32736	
4276	0	32672	
4277	0	32832	
4278	0	32820	
4279	0	32856	
4280	0	32730	
4281	0	32744	
4282	0	32772	
4283	0	32770	
4284	0	32888	
4285	0	32880	
4286	0	32780	
4287	0	32700	
4288	0	32736	
4289	0	32869	
4290	0	32828	
4291	0	32848	
4292	0	32848	
4293	0	32840	
4294	0	32752	
4295	0	32750	
4296	0	32743	
4297	0	32704	
4298	0	32736	
4299	0	32708	
4300	0	32768	
4301	0	32804	
4302	0	32860	
4303	0	32768	
4304	0	32751	
4305	0	32804	
4306	0	32828	
4307	0	32832	
4308	0	32736	
4309	0	32775	
4310	0	32824	
4311	0	32864	
4312	0	32764	
4313	0	32730	
4314	0	32740	
4315	0	32744	
4316	0	32788	
4317	0	32716	
4318	0	32780	
4319	0	32804	
4320	0	32759	
4321	0	32792	
4322	0	32720	
4323	0	32820	
4324	0	32794	
4325	0	32816	
4326	0	32832	
4327	0	32808	
4328	0	32785	
4329	0	32804	
4330	0	32860	
4331	0	32776	
4332	0	32832	
4333	0	32792	
4334	0	32740	
4335	0	32772	
4336	0	32768	
4337	0	32724	
4338	0	32826	
4339	0	32776	
4340	0	32828	
4341	0	32828	
4342	0	32708	
4343	0	32776	
4344	0	32800	
4345	0	32738	
4346	0	32756	
4347	0	32784	
4348	0	32762	
4349	0	32728	
4350	0	32725	
4351	0	32708	
4352	0	32780	
4353	0	32776	
4354	0	32824	
4355	0	32836	
4356	0	32768	
4357	0	32740	
4358	0	32744	
4359	0	32722	
4360	0	32740	
4361	0	32792	
4362	0	32800	
4363	0	32775	
4364	0	32796	
4365	0	32824	
4366	0	32836	
4367	0	32812	
4368	0	32792	
4369	0	32796	
4370	0	32820	
4371	0	32852	
4372	0	32768	
4373	0	32716	
4374	0	32712	
4375	0	32728	
4376	0	32748	
4377	0	32760	
4378	0	32752	
4379	0	32800	
4380	0	32872	
4381	0	32864	
4382	0	32849	
4383	0	32812	
4384	0	32876	
4385	0	32772	
4386	0	32664	
4387	0	32721	
4388	0	32820	
4389	0	32820	
4390	0	32800	
4391	0	32784	
4392	0	32836	
4393	0	32800	
4394	0	32774	
4395	0	32708	
4396	0	32704	
4397	0	32748	
4398	0	32840	
4399	0	32812	
4400	0	32836	
4401	0	32728	
4402	0	32776	
4403	0	32736	
4404	0	32736	
4405	0	32736	
4406	0	32856	
4407	0	32776	
4408	0	32802	
4409	0	32840	
4410	0	32840	
4411	0	32808	
4412	0	32841	
4413	0	32692	
4414	0	32744	
4415	0	32784	
4416	0	32782	
4417	0	32768	
4418	0	32780	
4419	0	32700	
4420	0	32752	
4421	0	32800	
4422	0	32813	
4423	0	32824	
4424	0	32832	
4425	0	32848	
4426	0	32792	
4427	0	32728	
4428	0	32804	
4429	0	32784	
4430	0	32828	
4431	0	32764	
4432	0	32768	
4433	0	32776	
4434	0	32736	
4435	0	32736	
4436	0	32748	
4437	0	32736	
4438	0	32750	
4439	0	32784	
4440	0	32728	
4441	0	32704	
4442	0	32813	
4443	0	32852	
4444	0	32937	
4445	0	32784	
4446	0	32902	
4447	0	32884	
4448	0	32784	
4449	0	32728	
4450	0	32752	
4451	0	32720	
4452	0	32736	
4453	0	32724	
4454	0	32788	
4455	0	32736	
4456	0	32784	
4457	0	32774	
4458	0	32784	
4459	0	32792	
4460	0	32796	
4461	0	32737	
4462	0	32717	
4463	0	32727	
4464	0	32708	
4465	0	32721	
4466	0	32776	
4467	0	32724	
4468	0	32700	
4469	0	32796	
4470	0	32876	
4471	0	32816	
4472	0	32832	
4473	0	32820	
4474	0	32780	
4475	0	32784	
4476	0	32724	
4477	0	32784	
4478	0	32748	
4479	0	32768	
4480	0	32840	
4481	0	32872	
4482	0	32817	
4483	0	32773	
4484	0	32832	
4485	0	32800	
4486	0	32752	
4487	0	32756	
4488	0	32756	
4489	0	32792	
4490	0	32744	
4491	0	32709	
4492	0	32792	
4493	0	32784	
4494	0	32752	
4495	0	32770	
4496	0	32756	
4497	0	32772	
4498	0	32692	
4499	0	32748	
4500	0	32760	
4501	0	32756	
4502	0	32760	
4503	0	32856	
4504	0	32804	
4505	0	32784	
4506	0	32840	
4507	0	32868	
4508	0	32796	
4509	0	32836	
4510	0	32760	
4511	0	32756	
4512	0	32769	
4513	0	32785	
4514	0	32740	
4515	0	32792	
4516	0	32724	
4517	0	32736	
4518	0	32804	
4519	0	32708	
4520	0	32728	
4521	0	32784	
4522	0	32772	
4523	0	32788	
4524	0	32646	
4525	0	32792	
4526	0	32888	
4527	0	32800	
4528	0	32784	
4529	0	32868	
4530	0	32872	
4531	0	32888	
4532	0	32736	
4533	0	32712	
4534	0	32744	
4535	0	32676	
4536	0	32748	
4537	0	32776	
4538	0	32820	
4539	0	32820	
4540	0	32764	
4541	0	32804	
4542	0	32744	
4543	0	32780	
4544	0	32736	
4545	0	32680	
4546	0	32663	
4547	0	32686	
4548	0	32773	
4549	0	32792	
4550	0	32804	
4551	0	32832	
4552	0	32818	
4553	0	32894	
4554	0	32808	
4555	0	32773	
4556	0	32768	
4557	0	32776	
4558	0	32732	
4559	0	32748	
4560	0	32840	
4561	0	32764	
4562	0	32797	
4563	0	32764	
4564	0	32804	
4565	0	32848	
4566	0	32804	
4567	0	32748	
4568	0	32700	
4569	0	32772	
4570	0	32792	
4571	0	32808	
4572	0	32804	
4573	0	32800	
4574	0	32808	
4575	0	32770	
4576	0	32708	
4577	0	32668	
4578	0	32708	
4579	0	32788	
4580	0	32774	
4581	0	32820	
4582	0	32760	
4583	0	32800	
4584	0	32757	
4585	0	32748	
4586	0	32748	
4587	0	32764	
4588	0	32752	
4589	0	32772	
4590	0	32764	
4591	0	32760	
4592	0	32912	
4593	0	32820	
4594	0	32804	
4595	0	32733	
4596	0	32832	
4597	0	32692	
4598	0	32720	
4599	0	32749	
4600	0	32924	
4601	0	32916	
4602	0	32844	
4603	0	32800	
4604	0	32728	
4605	0	32704	
4606	0	32784	
4607	0	32824	
4608	0	32840	
4609	0	32804	
4610	0	32688	
4611	0	32697	
4612	0	32780	
4613	0	32746	
4614	0	32832	
4615	0	32740	
4616	0	32800	
4617	0	32868	
4618	0	32754	
4619	0	32781	
4620	0	32872	
4621	0	32808	
4622	0	32713	
4623	0	32708	
4624	0	32800	
4625	0	32792	
4626	0	32766	
4627	0	32772	
4628	0	32732	
4629	0	32720	
4630	0	32733	
4631	0	32732	
4632	0	32860	
4633	0	32900	
4634	0	32820	
4635	0	32900	
4636	0	32812	
4637	0	32720	
4638	0	32693	
4639	0	32724	
4640	0	32762	
4641	0	32845	
4642	0	32822	
4643	0	32728	
4644	0	32752	
4645	0	32780	
4646	0	32872	
4647	0	32788	
4648	0	32796	
4649	0	32820	
4650	0	32732	
4651	0	32788	
4652	0	32748	
4653	0	32736	
4654	0	32804	
4655	0	32852	
4656	0	32832	
4657	0	32792	
4658	0	32776	
4659	0	32736	
4660	0	32852	
4661	0	32796	
4662	0	32848	
4663	0	32837	
4664	0	32686	
4665	0	32704	
4666	0	32756	
4667	0	32716	
4668	0	32776	
4669	0	32781	
4670	0	32786	
4671	0	32762	
4672	0	32796	
4673	0	32720	
4674	0	32724	
4675	0	32744	
4676	0	32788	
4677	0	32741	
4678	0	32804	
4679	0	32792	
4680	0	32817	
4681	0	32820	
4682	0	32813	
4683	0	32832	
4684	0	32808	
4685	0	32856	
4686	0	32788	
4687	0	32716	
4688	0	32832	
4689	0	32776	
4690	0	32773	
4691	0	32733	
4692	0	32672	
4693	0	32772	
4694	0	32724	
4695	0	32812	
4696	0	32852	
4697	0	32864	
4698	0	32852	
4699	0	32824	
4700	0	32764	
4701	0	32647	
4702	0	32717	
4703	0	32716	
4704	0	32860	
4705	0	32740	
4706	0	32780	
4707	0	32824	
4708	0	32848	
4709	0	32838	
4710	0	32772	
4711	0	32717	
4712	0	32744	
4713	0	32780	
4714	0	32744	
4715	0	32812	
4716	0	32805	
4717	0	32756	
4718	0	32832	
4719	0	32781	
4720	0	32812	
4721	0	32858	
4722	0	32808	
4723	0	32828	
4724	0	32800	
4725	0	32820	
4726	0	32733	
4727	0	32720	
4728	0	32746	
4729	0	32822	
4730	0	32740	
4731	0	32869	
4732	0	32796	
4733	0	32732	
4734	0	32728	
4735	0	32676	
4736	0	32790	
4737	0	32860	
4738	0	32864	
4739	0	32832	
4740	0	32796	
4741	0	32732	
4742	0	32720	
4743	0	32752	
4744	0	32836	
4745	0	32838	
4746	0	32782	
4747	0	32668	
4748	0	32760	
4749	0	32788	
4750	0	32888	
4751	0	32844	
4752	0	32684	
4753	0	32752	
4754	0	32756	
4755	0	32712	
4756	0	32744	
4757	0	32865	
4758	0	32749	
4759	0	32772	
4760	0	32804	
4761	0	32748	
4762	0	32796	
4763	0	32880	
4764	0	32820	
4765	0	32684	
4766	0	32664	
4767	0	32833	
4768	0	32816	
4769	0	32824	
4770	0	32785	
4771	0	32736	
4772	0	32756	
4773	0	32752	
4774	0	32812	
4775	0	32793	
4776	0	32808	
4777	0	32768	
4778	0	32748	
4779	0	32734	
4780	0	32780	
4781	0	32712	
4782	0	32764	
4783	0	32781	
4784	0	32744	
4785	0	32808	
4786	0	32718	
4787	0	32780	
4788	0	32802	
4789	0	32744	
4790	0	32840	
4791	0	32912	
4792	0	32824	
4793	0	32796	
4794	0	32764	
4795	0	32788	
4796	0	32724	
4797	0	32772	
4798	0	32792	
4799	0	32772	
4800	0	32788	
4801	0	32710	
4802	0	32808	
4803	0	32872	
4804	0	32764	
4805	0	32752	
4806	0	32744	
4807	0	32776	
4808	0	32776	
4809	0	32769	
4810	0	32780	
4811	0	32777	
4812	0	32832	
4813	0	32804	
4814	0	32772	
4815	0	32712	
4816	0	32736	
4817	0	32788	
4818	0	32812	
4819	0	32724	
4820	0	32736	
4821	0	32784	
4822	0	32828	
4823	0	32752	
4824	0	32772	
4825	0	32772	
4826	0	32776	
4827	0	32772	
4828	0	32841	
4829	0	32808	
4830	0	32826	
4831	0	32724	
4832	0	32768	
4833	0	32788	
4834	0	32730	
4835	0	32732	
4836	0	32808	
4837	0	32793	
4838	0	32740	
4839	0	32758	
4840	0	32820	
4841	0	32832	
4842	0	32761	
4843	0	32808	
4844	0	32788	
4845	0	32808	
4846	0	32808	
4847	0	32796	
4848	0	32732	
4849	0	32813	
4850	0	32804	
4851	0	32900	
4852	0	32780	
4853	0	32828	
4854	0	32800	
4855	0	32740	
4856	0	32688	
4857	0	32652	
4858	0	32692	
4859	0	32712	
4860	0	32788	
4861	0	32785	
4862	0	32752	
4863	0	32837	
4864	0	32944	
4865	0	32936	
4866	0	32876	
4867	0	32717	
4868	0	32744	
4869	0	32756	
4870	0	32804	
4871	0	32752	
4872	0	32648	
4873	0	32684	
4874	0	32804	
4875	0	32752	
4876	0	32775	
4877	0	32824	
4878	0	32816	
4879	0	32764	
4880	0	32720	
4881	0	32764	
4882	0	32828	
4883	0	32768	
4884	0	32816	
4885	0	32820	
4886	0	32774	
4887	0	32872	
4888	0	32844	
4889	0	32838	
4890	0	32760	
4891	0	32728	
4892	0	32736	
4893	0	32800	
4894	0	32797	
4895	0	32829	
4896	0	32796	
4897	0	32864	
4898	0	32888	
4899	0	32744	
4900	0	32688	
4901	0	32748	
4902	0	32766	
4903	0	32716	
4904	0	32740	
4905	0	32862	
4906	0	32768	
4907	0	32676	
4908	0	32772	
4909	0	32876	
4910	0	32769	
4911	0	32780	
4912	0	32764	
4913	0	32793	
4914	0	32780	
4915	0	32788	
4916	0	32717	
4917	0	32796	
4918	0	32856	
4919	0	32732	
4920	0	32764	
4921	0	32760	
4922	0	32700	
4923	0	32848	
4924	0	32836	
4925	0	32820	
4926	0	32772	
4927	0	32770	
4928	0	32724	
4929	0	32832	
4930	0	32808	
4931	0	32844	
4932	0	32788	
4933	0	32816	
4934	0	32704	
4935	0	32796	
4936	0	32780	
4937	0	32748	
4938	0	32724	
4939	0	32744	
4940	0	32792	
4941	0	32808	
4942	0	32766	
4943	0	32721	
4944	0	32816	
4945	0	32832	
4946	0	32780	
4947	0	32700	
4948	0	32740	
4949	0	32784	
4950	0	32820	
4951	0	32840	
4952	0	32756	
4953	0	32790	
4954	0	32836	
4955	0	32748	
4956	0	32732	
4957	0	32766	
4958	0	32768	
4959	0	32820	
4960	0	32800	
4961	0	32797	
4962	0	32836	
4963	0	32800	
4964	0	32780	
4965	0	32792	
4966	0	32792	
4967	0	32848	
4968	0	32844	
4969	0	32844	
4970	0	32778	
4971	0	32816	
4972	0	32753	
4973	0	32644	
4974	0	32580	
4975	0	32700	
4976	0	32714	
4977	0	32736	
4978	0	32752	
4979	0	32792	
4980	0	32792	
4981	0	32721	
4982	0	32756	
4983	0	32832	
4984	0	32800	
4985	0	32762	
4986	0	32740	
4987	0	32732	
4988	0	32736	
4989	0	32740	
4990	0	32740	
4991	0	32736	
4992	0	32768	
4993	0	32756	
4994	0	32764	
4995	0	32788	
4996	0	32748	
4997	0	32884	
4998	0	32977	
4999	0	32904	
5000	0	32836	
5001	0	32744	
5002	0	32728	
5003	0	32752	
5004	0	32760	
5005	0	32836	
5006	0	32756	
5007	0	32804	
5008	0	32776	
5009	0	32788	
5010	0	32785	
5011	0	32804	
5012	0	32780	
5013	0	32736	
5014	0	32792	
5015	0	32840	
5016	0	32844	
5017	0	32816	
5018	0	32680	
5019	0	32768	
5020	0	32796	
5021	0	32880	
5022	0	32828	
5023	0	32784	
5024	0	32796	
5025	0	32808	
5026	0	32794	
5027	0	32708	
5028	0	32776	
5029	0	32693	
5030	0	32672	
5031	0	32752	
5032	0	32720	
5033	0	32841	
5034	0	32860	
5035	0	32794	
5036	0	32781	
5037	0	32808	
5038	0	32793	
5039	0	32801	
5040	0	32816	
5041	0	32744	
5042	0	32740	
5043	0	32764	
5044	0	32836	
5045	0	32776	
5046	0	32800	
5047	0	32812	
5048	0	32744	
5049	0	32736	
5050	0	32725	
5051	0	32748	
5052	0	32816	
5053	0	32768	
5054	0	32764	
5055	0	32722	
5056	0	32812	
5057	0	32772	
5058	0	32756	
5059	0	32772	
5060	0	32840	
5061	0	32732	
5062	0	32772	
5063	0	32792	
5064	0	32824	
5065	0	32768	
5066	0	32840	
5067	0	32792	
5068	0	32777	
5069	0	32725	
5070	0	32740	
5071	0	32796	
5072	0	32785	
5073	0	32792	
5074	0	32772	
5075	0	32828	
5076	0	32688	
5077	0	32734	
5078	0	32772	
5079	0	32860	
5080	0	32844	
5081	0	32768	
5082	0	32820	
5083	0	32736	
5084	0	32785	
5085	0	32816	
5086	0	32788	
5087	0	32837	
5088	0	32741	
5089	0	32712	
5090	0	32708	
5091	0	32684	
5092	0	32696	
5093	0	32805	
5094	0	32920	
5095	0	32817	
5096	0	32824	
5097	0	32800	
5098	0	32784	
5099	0	32712	
5100	0	32752	
5101	0	32836	
5102	0	32844	
5103	0	32904	
5104	0	32852	
5105	0	32764	
5106	0	32680	
5107	0	32672	
5108	0	32688	
5109	0	32705	
5110	0	32704	
5111	0	32732	
5112	0	32820	
5113	0	32840	
5114	0	32760	
5115	0	32828	
5116	0	32764	
5117	0	32832	
5118	0	32822	
5119	0	32774	
5120	0	32760	
5121	0	32752	
5122	0	32732	
5123	0	32704	
5124	0	32785	
5125	0	32884	
5126	0	32852	
5127	0	32752	
5128	0	32812	
5129	0	32800	
5130	0	32680	
5131	0	32732	
5132	0	32804	
5133	0	32776	
5134	0	32761	
5135	0	32756	
5136	0	32784	
5137	0	32801	
5138	0	32725	
5139	0	32756	
5140	0	32788	
5141	0	32813	
5142	0	32708	
5143	0	32836	
5144	0	32791	
5145	0	32800	
5146	0	32780	
5147	0	32828	
5148	0	32704	
5149	0	32720	
5150	0	32878	
5151	0	32812	
5152	0	32752	
5153	0	32780	
5154	0	32853	
5155	0	32760	
5156	0	32648	
5157	0	32784	
5158	0	32724	
5159	0	32780	
5160	0	32768	
5161	0	32798	
5162	0	32876	
5163	0	32820	
5164	0	32816	
5165	0	32800	
5166	0	32772	
5167	0	32716	
5168	0	32784	
5169	0	32764	
5170	0	32804	
5171	0	32768	
5172	0	32680	
5173	0	32664	
5174	0	32716	
5175	0	32784	
5176	0	32780	
5177	0	32757	
5178	0	32820	
5179	0	32856	
5180	0	32860	
5181	0	32840	
5182	0	32808	
5183	0	32844	
5184	0	32844	
5185	0	32680	
5186	0	32684	
5187	0	32664	
5188	0	32656	
5189	0	32780	
5190	0	32824	
5191	0	32796	
5192	0	32744	
5193	0	32720	
5194	0	32764	
5195	0	32812	
5196	0	32872	
5197	0	32700	
5198	0	32800	
5199	0	32776	
5200	0	32728	
5201	0	32684	
5202	0	32798	
5203	0	32740	
5204	0	32852	
5205	0	32812	
5206	0	32810	
5207	0	32736	
5208	0	32788	
5209	0	32864	
5210	0	32880	
5211	0	32804	
5212	0	32768	
5213	0	32780	
5214	0	32792	
5215	0	32776	
5216	0	32880	
5217	0	32852	
5218	0	32776	
5219	0	32728	
5220	0	32684	
5221	0	32760	
5222	0	32724	
5223	0	32757	
5224	0	32828	
5225	0	32780	
5226	0	32800	
5227	0	32800	
5228	0	32840	
5229	0	32800	
5230	0	32768	
5231	0	32728	
5232	0	32716	
5233	0	32808	
5234	0	32812	
5235	0	32712	
5236	0	32756	
5237	0	32748	
5238	0	32724	
5239	0	32784	
5240	0	32758	
5241	0	32740	
5242	0	32880	
5243	0	32796	
5244	0	32834	
5245	0	32900	
5246	0	32804	
5247	0	32799	
5248	0	32748	
5249	0	32784	
5250	0	32757	
5251	0	32804	
5252	0	32732	
5253	0	32774	
5254	0	32836	
5255	0	32760	
5256	0	32741	
5257	0	32792	
5258	0	32832	
5259	0	32804	
5260	0	32804	
5261	0	32812	
5262	0	32804	
5263	0	32756	
5264	0	32760	
5265	0	32656	
5266	0	32705	
5267	0	32768	
5268	0	32813	
5269	0	32692	
5270	0	32766	
5271	0	32744	
5272	0	32732	
5273	0	32844	
5274	0	32826	
5275	0	32840	
5276	0	32760	
5277	0	32772	
5278	0	32748	
5279	0	32800	
5280	0	32848	
5281	0	32840	
5282	0	32884	
5283	0	32752	
5284	0	32748	
5285	0	32728	
5286	0	32784	
5287	0	32716	
5288	0	32800	
5289	0	32736	
5290	0	32825	
5291	0	32809	
5292	0	32776	
5293	0	32740	
5294	0	32756	
5295	0	32752	
5296	0	32764	
5297	0	32790	
5298	0	32748	
5299	0	32736	
5300	0	32768	
5301	0	32812	
5302	0	32768	
5303	0	32800	
5304	0	32784	
5305	0	32808	
5306	0	32784	
5307	0	32808	
5308	0	32728	
5309	0	32824	
5310	0	32741	
5311	0	32832	
5312	0	32808	
5313	0	32804	
5314	0	32788	
5315	0	32720	
5316	0	32868	
5317	0	32896	
5318	0	32900	
5319	0	32740	
5320	0	32600	
5321	0	32624	
5322	0	32741	
5323	0	32824	
5324	0	32784	
5325	0	32760	
5326	0	32784	
5327	0	32776	
5328	0	32756	
5329	0	32864	
5330	0	32852	
5331	0	32776	
5332	0	32852	
5333	0	32777	
5334	0	32728	
5335	0	32761	
5336	0	32672	
5337	0	32740	
5338	0	32808	
5339	0	32828	
5340	0	32767	
5341	0	32820	
5342	0	32728	
5343	0	32788	
5344	0	32820	
5345	0	32896	
5346	0	32860	
5347	0	32740	
5348	0	32796	
5349	0	32840	
5350	0	32664	
5351	0	32706	
5352	0	32673	
5353	0	32816	
5354	0	32816	
5355	0	32740	
5356	0	32744	
5357	0	32749	
5358	0	32776	
5359	0	32746	
5360	0	32692	
5361	0	32816	
5362	0	32752	
5363	0	32696	
5364	0	32678	
5365	0	32653	
5366	0	32660	
5367	0	32788	
5368	0	32688	
5369	0	32844	
5370	0	32750	
5371	0	32781	
5372	0	32920	
5373	0	33040	
5374	0	33100	
5375	0	33089	
5376	0	32888	
5377	0	32728	
5378	0	32864	
5379	0	32817	
5380	0	32612	
5381	0	32620	
5382	0	32720	
5383	0	32828	
5384	0	32772	
5385	0	32776	
5386	0	32718	
5387	0	32540	
5388	0	32464	
5389	0	32324	
5390	0	32524	
5391	0	32653	
5392	0	32856	
5393	0	33045	
5394	0	33232	
5395	0	33582	
5396	0	33544	
5397	0	33084	
5398	0	32712	
5399	0	32376	
5400	0	32536	
5401	0	32637	
5402	0	32656	
5403	0	32488	
5404	0	32348	
5405	0	32728	
5406	0	33004	
5407	0	33110	
5408	0	32892	
5409	0	32908	
5410	0	32752	
5411	0	32720	
5412	0	32908	
5413	0	32924	
5414	0	32744	
5415	0	32828	
5416	0	33244	
5417	0	33532	
5418	0	33264	
5419	0	33096	
5420	0	33148	
5421	0	33676	
5422	0	33613	
5423	0	33048	
5424	0	32212	
5425	0	31896	
5426	0	32172	
5427	0	32728	
5428	0	32984	
5429	0	32824	
5430	0	32596	
5431	0	32461	
5432	0	32328	
5433	0	32192	
5434	0	31765	
5435	0	31712	
5436	0	31860	
5437	0	31856	
5438	0	32012	
5439	0	32300	
5440	0	32508	
5441	0	32324	
5442	0	32156	
5443	0	32416	
5444	0	33112	
5445	0	33100	
5446	0	33040	
5447	0	32872	
5448	0	33004	
5449	0	33304	
5450	0	33216	
5451	0	33048	
5452	0	33196	
5453	0	33596	
5454	0	33612	
5455	0	33332	
5456	0	32836	
5457	0	32556	
5458	0	32598	
5459	0	32548	
5460	0	32700	
5461	0	33104	
5462	0	33268	
5463	0	33344	
5464	0	33368	
5465	0	33196	
5466	0	33252	
5467	0	33348	
5468	0	33020	
5469	0	32256	
5470	0	32220	
5471	0	32676	
5472	0	32540	
5473	0	32380	
5474	0	32321	
5475	0	32414	
5476	0	32468	
5477	0	32124	
5478	0	32168	
5479	0	32052	
5480	0	32252	
5481	0	32568	
5482	0	32708	
5483	0	32820	
5484	0	33372	
5485	0	33336	
5486	0	34036	
5487	0	33884	
5488	0	32972	
5489	0	32428	
5490	0	32549	
5491	0	32880	
5492	0	33124	
5493	0	33012	
5494	0	32856	
5495	0	33144	
5496	0	33077	
5497	0	32481	
5498	0	32096	
5499	0	31908	
5500	0	32168	
5501	0	32356	
5502	0	32364	
5503	0	32656	
5504	0	33016	
5505	0	33436	
5506	0	33224	
5507	0	32580	
5508	0	32876	
5509	0	33149	
5510	0	32944	
5511	0	32456	
5512	0	31828	
5513	0	32280	
5514	0	33156	
5515	0	33596	
5516	0	33532	
5517	0	33433	
5518	0	33144	
5519	0	33320	
5520	0	33328	
5521	0	33148	
5522	0	32672	
5523	0	32436	
5524	0	32232	
5525	0	31948	
5526	0	31872	
5527	0	32018	
5528	0	32156	
5529	0	32404	
5530	0	32652	
5531	0	32564	
5532	0	32692	
5533	0	32538	
5534	0	32180	
5535	0	32100	
5536	0	32236	
5537	0	32373	
5538	0	32530	
5539	0	32536	
5540	0	32644	
5541	0	32942	
5542	0	33528	
5543	0	33424	
5544	0	33640	
5545	0	33917	
5546	0	34092	
5547	0	33832	
5548	0	33364	
5549	0	33444	
5550	0	33717	
5551	0	33401	
5552	0	32780	
5553	0	33156	
5554	0	33588	
5555	0	33272	
5556	0	33220	
5557	0	33468	
5558	0	33204	
5559	0	32220	
5560	0	31341	
5561	0	31380	
5562	0	31588	
5563	0	32188	
5564	0	33069	
5565	0	32989	
5566	0	32953	
5567	0	32556	
5568	0	32140	
5569	0	32232	
5570	0	32176	
5571	0	32320	
5572	0	32332	
5573	0	32088	
5574	0	31944	
5575	0	32144	
5576	0	32194	
5577	0	32164	
5578	0	32936	
5579	0	33902	
5580	0	34032	
5581	0	33676	
5582	0	33344	
5583	0	33288	
5584	0	33540	
5585	0	33528	
5586	0	33588	
5587	0	33437	
5588	0	33112	
5589	0	32832	
5590	0	32552	
5591	0	32516	
5592	0	32356	
5593	0	32116	
5594	0	31692	
5595	0	31572	
5596	0	31536	
5597	0	31416	
5598	0	31700	
5599	0	31756	
5600	0	31908	
5601	0	31877	
5602	0	32040	
5603	0	32348	
5604	0	32616	
5605	0	33176	
5606	0	33277	
5607	0	33469	
5608	0	33856	
5609	0	34412	
5610	0	34600	
5611	0	33920	
5612	0	33440	
5613	0	33116	
5614	0	32730	
5615	0	32584	
5616	0	32640	
5617	0	32724	
5618	0	32876	
5619	0	33493	
5620	0	34285	
5621	0	34310	
5622	0	33740	
5623	0	33136	
5624	0	33452	
5625	0	33100	
5626	0	32048	
5627	0	31144	
5628	0	31317	
5629	0	32300	
5630	0	33172	
5631	0	33024	
5632	0	33028	
5633	0	32372	
5634	0	31524	
5635	0	31004	
5636	0	31252	
5637	0	32153	
5638	0	32760	
5639	0	33030	
5640	0	33556	
5641	0	33528	
5642	0	33252	
5643	0	33460	
5644	0	33636	
5645	0	33648	
5646	0	33200	
5647	0	32156	
5648	0	30916	
5649	0	30848	
5650	0	31732	
5651	0	32384	
5652	0	32588	
5653	0	32436	
5654	0	32879	
5655	0	33720	
5656	0	33728	
5657	0	33340	
5658	0	33560	
5659	0	33431	
5660	0	33468	
5661	0	33764	
5662	0	33837	
5663	0	33560	
5664	0	33820	
5665	0	33908	
5666	0	33372	
5667	0	32896	
5668	0	32620	
5669	0	32308	
5670	0	31900	
5671	0	31799	
5672	0	31800	
5673	0	31788	
5674	0	31865	
5675	0	31940	
5676	0	31904	
5677	0	31812	
5678	0	32072	
5679	0	31869	
5680	0	31680	
5681	0	31992	
5682	0	32360	
5683	0	32516	
5684	0	32888	
5685	0	34304	
5686	0	34844	
5687	0	34780	
5688	0	33744	
5689	0	32118	
5690	0	32538	
5691	0	33768	
5692	0	33494	
5693	0	33684	
5694	0	34092	
5695	0	33940	
5696	0	33124	
5697	0	32224	
5698	0	31404	
5699	0	32018	
5700	0	32544	
5701	0	32484	
5702	0	32388	
5703	0	31964	
5704	0	31440	
5705	0	31508	
5706	0	31848	
5707	0	31861	
5708	0	32277	
5709	0	33087	
5710	0	33672	
5711	0	33381	
5712	0	33416	
5713	0	33156	
5714	0	32388	
5715	0	32028	
5716	0	32300	
5717	0	32784	
5718	0	32744	
5719	0	33052	
5720	0	33240	
5721	0	32854	
5722	0	33172	
5723	0	33509	
5724	0	33072	
5725	0	32260	
5726	0	32020	
5727	0	32424	
5728	0	33120	
5729	0	33652	
5730	0	33772	
5731	0	33520	
5732	0	33812	
5733	0	34140	
5734	0	34024	
5735	0	33525	
5736	0	33256	
5737	0	33148	
5738	0	32889	
5739	0	32496	
5740	0	31932	
5741	0	31724	
5742	0	31765	
5743	0	31841	
5744	0	31684	
5745	0	31616	
5746	0	31268	
5747	0	31400	
5748	0	31940	
5749	0	32580	
5750	0	33217	
5751	0	34124	
5752	0	35064	
5753	0	34784	
5754	0	33796	
5755	0	33253	
5756	0	32952	
5757	0	32372	
5758	0	31716	
5759	0	31628	
5760	0	31744	
5761	0	32010	
5762	0	31937	
5763	0	33028	
5764	0	34100	
5765	0	34016	
5766	0	33180	
5767	0	32664	
5768	0	32768	
5769	0	33388	
5770	0	34324	
5771	0	33828	
5772	0	32681	
5773	0	31400	
5774	0	30520	
5775	0	30340	
5776	0	30416	
5777	0	30708	
5778	0	31280	
5779	0	31952	
5780	0	32916	
5781	0	33652	
5782	0	34484	
5783	0	34908	
5784	0	34792	
5785	0	33964	
5786	0	33696	
5787	0	33829	
5788	0	33600	
5789	0	33264	
5790	0	32724	
5791	0	32348	
5792	0	32332	
5793	0	32800	
5794	0	32784	
5795	0	32492	
5796	0	32384	
5797	0	32168	
5798	0	32372	
5799	0	32596	
5800	0	32544	
5801	0	32869	
5802	0	33188	
5803	0	33324	
5804	0	32724	
5805	0	32414	
5806	0	32632	
5807	0	32920	
5808	0	32982	
5809	0	33038	
5810	0	33004	
5811	0	32964	
5812	0	32868	
5813	0	32934	
5814	0	32812	
5815	0	32860	
5816	0	32892	
5817	0	32612	
5818	0	32628	
5819	0	32624	
5820	0	32584	
5821	0	32484	
5822	0	32292	
5823	0	32096	
5824	0	32124	
5825	0	32116	
5826	0	32068	
5827	0	32184	
5828	0	32448	
5829	0	32776	
5830	0	32788	
5831	0	32296	
5832	0	33384	
5833	0	34006	
5834	0	33270	
5835	0	32392	
5836	0	32300	
5837	0	32320	
5838	0	32420	
5839	0	32933	
5840	0	33564	
5841	0	34060	
5842	0	34332	
5843	0	34644	
5844	0	34704	
5845	0	33493	
5846	0	31844	
5847	0	31688	
5848	0	32740	
5849	0	32952	
5850	0	32192	
5851	0	31300	
5852	0	30708	
5853	0	30648	
5854	0	31364	
5855	0	32108	
5856	0	32788	
5857	0	32884	
5858	0	32960	
5859	0	33452	
5860	0	34152	
5861	0	34280	
5862	0	34348	
5863	0	34272	
5864	0	33980	
5865	0	34077	
5866	0	33629	
5867	0	32996	
5868	0	32912	
5869	0	33152	
5870	0	33196	
5871	0	33256	
5872	0	32688	
5873	0	32092	
5874	0	31780	
5875	0	32152	
5876	0	32220	
5877	0	32052	
5878	0	32324	
5879	0	32284	
5880	0	32056	
5881	0	31992	
5882	0	31612	
5883	0	31788	
5884	0	31840	
5885	0	31676	
5886	0	31804	
5887	0	32276	
5888	0	32872	
5889	0	32964	
5890	0	33024	
5891	0	33236	
5892	0	33468	
5893	0	33388	
5894	0	33300	
5895	0	33424	
5896	0	33704	
5897	0	33180	
5898	0	32836	
5899	0	32428	
5900	0	32368	
5901	0	32580	
5902	0	32480	
5903	0	32452	
5904	0	32604	
5905	0	33068	
5906	0	33732	
5907	0	34044	
5908	0	33624	
5909	0	33064	
5910	0	32664	
5911	0	32705	
5912	0	32952	
5913	0	34012	
5914	0	33620	
5915	0	32092	
5916	0	31836	
5917	0	31888	
5918	0	32156	
5919	0	32688	
5920	0	32384	
5921	0	31628	
5922	0	31700	
5923	0	31600	
5924	0	31912	
5925	0	32580	
5926	0	33312	
5927	0	33556	
5928	0	33744	
5929	0	33728	
5930	0	33560	
5931	0	33021	
5932	0	33096	
5933	0	33108	
5934	0	32736	
5935	0	32144	
5936	0	31738	
5937	0	31524	
5938	0	31844	
5939	0	32388	
5940	0	33188	
5941	0	33948	
5942	0	33692	
5943	0	34000	
5944	0	34230	
5945	0	34396	
5946	0	34488	
5947	0	33896	
5948	0	33585	
5949	0	33140	
5950	0	32636	
5951	0	32064	
5952	0	31389	
5953	0	31360	
5954	0	31456	
5955	0	31117	
5956	0	31404	
5957	0	31863	
5958	0	32196	
5959	0	32332	
5960	0	32384	
5961	0	32336	
5962	0	32236	
5963	0	32656	
5964	0	33312	
5965	0	33840	
5966	0	33951	
5967	0	33936	
5968	0	33760	
5969	0	33756	
5970	0	33284	
5971	0	32844	
5972	0	32680	
5973	0	32318	
5974	0	32112	
5975	0	32172	
5976	0	32344	
5977	0	32808	
5978	0	33480	
5979	0	33676	
5980	0	34224	
5981	0	33668	
5982	0	32364	
5983	0	31600	
5984	0	31644	
5985	0	31956	
5986	0	32169	
5987	0	32576	
5988	0	32644	
5989	0	32912	
5990	0	33072	
5991	0	33616	
5992	0	33468	
5993	0	32836	
5994	0	31968	
5995	0	31872	
5996	0	32064	
5997	0	32224	
5998	0	32428	
5999	0	32724	
6000	0	33068	
6001	0	32613	
6002	0	32408	
6003	0	32856	
6004	0	32892	
6005	0	32840	
6006	0	32592	
6007	0	32588	
6008	0	32376	
6009	0	32676	
6010	0	33092	
6011	0	33128	
6012	0	32821	
6013	0	32996	
6014	0	33890	
6015	0	34276	
6016	0	34280	
6017	0	34116	
6018	0	33472	
6019	0	32508	
6020	0	31668	
6021	0	31260	
6022	0	31948	
6023	0	32584	
6024	0	32798	
6025	0	32980	
6026	0	33245	
6027	0	33408	
6028	0	33448	
6029	0	33333	
6030	0	32796	
6031	0	32776	
6032	0	32548	
6033	0	32712	
6034	0	32988	
6035	0	32596	
6036	0	32132	
6037	0	31636	
6038	0	31536	
6039	0	31984	
6040	0	32040	
6041	0	31932	
6042	0	32112	
6043	0	32356	
6044	0	32828	
6045	0	33224	
6046	0	33600	
6047	0	33552	
6048	0	33504	
6049	0	33775	
6050	0	33428	
6051	0	32960	
6052	0	32040	
6053	0	31696	
6054	0	31892	
6055	0	32372	
6056	0	33637	
6057	0	34182	
6058	0	34420	
6059	0	33820	
6060	0	32772	
6061	0	32772	
6062	0	32920	
6063	0	33324	
6064	0	33728	
6065	0	33709	
6066	0	33252	
6067	0	33088	
6068	0	32668	
6069	0	31837	
6070	0	31284	
6071	0	30949	
6072	0	30764	
6073	0	31168	
6074	0	31564	
6075	0	32316	
6076	0	32736	
6077	0	32744	
6078	0	32900	
6079	0	33406	
6080	0	33090	
6081	0	32356	
6082	0	32588	
6083	0	32821	
6084	0	33288	
6085	0	33436	
6086	0	33480	
6087	0	33424	
6088	0	33056	
6089	0	32916	
6090	0	32778	
6091	0	32196	
6092	0	31913	
6093	0	32152	
6094	0	32332	
6095	0	32872	
6096	0	33360	
6097	0	33637	
6098	0	33672	
6099	0	33856	
6100	0	33664	
6101	0	33580	
6102	0	33820	
6103	0	33780	
6104	0	33849	
6105	0	33497	
6106	0	32980	
6107	0	32774	
6108	0	32512	
6109	0	32508	
6110	0	32140	
6111	0	31560	
6112	0	31472	
6113	0	31564	
6114	0	31669	
6115	0	31964	
6116	0	32364	
6117	0	32588	
6118	0	32816	
6119	0	33032	
6120	0	33184	
6121	0	32737	
6122	0	32120	
6123	0	31832	
6124	0	31876	
6125	0	32160	
6126	0	32800	
6127	0	33992	
6128	0	34102	
6129	0	33372	
6130	0	33016	
6131	0	32840	
6132	0	32668	
6133	0	32274	
6134	0	31908	
6135	0	32192	
6136	0	33012	
6137	0	33200	
6138	0	32500	
6139	0	32304	
6140	0	32886	
6141	0	33056	
6142	0	33076	
6143	0	32989	
6144	0	33424	
6145	0	33628	
6146	0	32832	
6147	0	32224	
6148	0	32448	
6149	0	33028	
6150	0	33368	
6151	0	33076	
6152	0	33016	
6153	0	33304	
6154	0	33088	
6155	0	32968	
6156	0	32888	
6157	0	32996	
6158	0	33196	
6159	0	32772	
6160	0	31584	
6161	0	31484	
6162	0	31909	
6163	0	32148	
6164	0	32492	
6165	0	32784	
6166	0	33334	
6167	0	33816	
6168	0	33964	
6169	0	34336	
6170	0	34256	
6171	0	34036	
6172	0	33432	
6173	0	33096	
6174	0	32772	
6175	0	32386	
6176	0	31952	
6177	0	31613	
6178	0	31248	
6179	0	31332	
6180	0	31632	
6181	0	31700	
6182	0	31680	
6183	0	32056	
6184	0	32428	
6185	0	32850	
6186	0	33360	
6187	0	33724	
6188	0	34008	
6189	0	33916	
6190	0	33436	
6191	0	32952	
6192	0	32568	
6193	0	32404	
6194	0	32240	
6195	0	31856	
6196	0	31936	
6197	0	32380	
6198	0	32600	
6199	0	33096	
6200	0	33045	
6201	0	33044	
6202	0	33041	
6203	0	33037	
6204	0	33016	
6205	0	33240	
6206	0	33406	
6207	0	33372	
6208	0	33161	
6209	0	32984	
6210	0	32712	
6211	0	32488	
6212	0	32501	
6213	0	32968	
6214	0	32856	
6215	0	32104	
6216	0	31460	
6217	0	31820	
6218	0	32100	
6219	0	32632	
6220	0	33180	
6221	0	33236	
6222	0	33500	
6223	0	33848	
6224	0	33568	
6225	0	33268	
6226	0	32672	
6227	0	32292	
6228	0	31172	
6229	0	30452	
6230	0	31113	
6231	0	32100	
6232	0	33144	
6233	0	32836	
6234	0	33073	
6235	0	33544	
6236	0	33976	
6237	0	34344	
6238	0	33924	
6239	0	33346	
6240	0	33312	
6241	0	33564	
6242	0	33784	
6243	0	33860	
6244	0	33692	
6245	0	33402	
6246	0	33076	
6247	0	32604	
6248	0	32180	
6249	0	32076	
6250	0	32120	
6251	0	32200	
6252	0	32366	
6253	0	32308	
6254	0	32424	
6255	0	32260	
6256	0	32392	
6257	0	32312	
6258	0	31845	
6259	0	31709	
6260	0	31704	
6261	0	31984	
6262	0	32160	
6263	0	32196	
6264	0	32081	
6265	0	32856	
6266	0	33560	
6267	0	33804	
6268	0	34176	
6269	0	34833	
6270	0	35404	
6271	0	34925	
6272	0	33900	
6273	0	33293	
6274	0	32704	
6275	0	32496	
6276	0	32149	
6277	0	31780	
6278	0	31989	
6279	0	31776	
6280	0	31628	
6281	0	32236	
6282	0	32480	
6283	0	31876	
6284	0	31456	
6285	0	31416	
6286	0	31680	
6287	0	32032	
6288	0	32381	
6289	0	33400	
6290	0	34412	
6291	0	33568	
6292	0	32816	
6293	0	32148	
6294	0	32040	
6295	0	32560	
6296	0	33112	
6297	0	33156	
6298	0	33604	
6299	0	33848	
6300	0	33332	
6301	0	32904	
6302	0	32116	
6303	0	32068	
6304	0	32521	
6305	0	32704	
6306	0	32584	
6307	0	32464	
6308	0	32840	
6309	0	32912	
6310	0	33068	
6311	0	33254	
6312	0	33540	
6313	0	33764	
6314	0	33436	
6315	0	33032	
6316	0	32844	
6317	0	32920	
6318	0	33200	
6319	0	33048	
6320	0	32946	
6321	0	33165	
6322	0	32912	
6323	0	32465	
6324	0	32428	
6325	0	32304	
6326	0	32096	
6327	0	31981	
6328	0	32220	
6329	0	32452	
6330	0	32612	
6331	0	33060	
6332	0	33204	
6333	0	33528	
6334	0	33536	
6335	0	33676	
6336	0	33604	
6337	0	33236	
6338	0	32740	
6339	0	32552	
6340	0	32493	
6341	0	32508	
6342	0	32336	
6343	0	32752	
6344	0	32676	
6345	0	32560	
6346	0	32448	
6347	0	32216	
6348	0	32080	
6349	0	32376	
6350	0	32292	
6351	0	32596	
6352	0	32648	
6353	0	33120	
6354	0	33384	
6355	0	33564	
6356	0	33504	
6357	0	32736	
6358	0	31092	
6359	0	30474	
6360	0	31124	
6361	0	32437	
6362	0	33840	
6363	0	33632	
6364	0	32672	
6365	0	32784	
6366	0	33348	
6367	0	33280	
6368	0	33380	
6369	0	32964	
6370	0	32204	
6371	0	32260	
6372	0	32124	
6373	0	31740	
6374	0	31204	
6375	0	31584	
6376	0	32390	
6377	0	33015	
6378	0	33164	
6379	0	33388	
6380	0	33548	
6381	0	34136	
6382	0	34480	
6383	0	34124	
6384	0	33996	
6385	0	34088	
6386	0	34028	
6387	0	33808	
6388	0	33856	
6389	0	33236	
6390	0	32768	
6391	0	32876	
6392	0	33280	
6393	0	33712	
6394	0	33684	
6395	0	33228	
6396	0	32785	
6397	0	32204	
6398	0	31824	
6399	0	31508	
6400	0	31152	
6401	0	31396	
6402	0	31452	
6403	0	31464	
6404	0	31584	
6405	0	31718	
6406	0	31668	
6407	0	31464	
6408	0	31520	
6409	0	32048	
6410	0	32580	
6411	0	32992	
6412	0	33184	
6413	0	33565	
6414	0	33568	
6415	0	33672	
6416	0	33738	
6417	0	33552	
6418	0	33184	
6419	0	33036	
6420	0	33428	
6421	0	33676	
6422	0	33817	
6423	0	33360	
6424	0	32608	
6425	0	32204	
6426	0	32308	
6427	0	32900	
6428	0	32964	
6429	0	33326	
6430	0	33760	
6431	0	33616	
6432	0	33008	
6433	0	32220	
6434	0	31752	
6435	0	31128	
6436	0	31204	
6437	0	31672	
6438	0	31740	
6439	0	31940	
6440	0	32416	
6441	0	32840	
6442	0	33181	
6443	0	33472	
6444	0	33380	
6445	0	33232	
6446	0	33000	
6447	0	32436	
6448	0	32068	
6449	0	32264	
6450	0	32925	
6451	0	33316	
6452	0	32900	
6453	0	32772	
6454	0	33385	
6455	0	33674	
6456	0	34052	
6457	0	34068	
6458	0	33956	
6459	0	33798	
6460	0	33369	
6461	0	33140	
6462	0	33212	
6463	0	33128	
6464	0	33020	
6465	0	32692	
6466	0	32224	
6467	0	32060	
6468	0	32244	
6469	0	32468	
6470	0	32468	
6471	0	32112	
6472	0	31826	
6473	0	32032	
6474	0	32368	
6475	0	32684	
6476	0	32661	
6477	0	32648	
6478	0	32448	
6479	0	32552	
6480	0	32496	
6481	0	32676	
6482	0	32737	
6483	0	32600	
6484	0	32984	
6485	0	33149	
6486	0	33024	
6487	0	32800	
6488	0	32612	
6489	0	32472	
6490	0	32372	
6491	0	32540	
6492	0	32496	
6493	0	33072	
6494	0	33516	
6495	0	33844	
6496	0	33680	
6497	0	32936	
6498	0	32640	
6499	0	32600	
6500	0	32288	
6501	0	32172	
6502	0	32404	
6503	0	32304	
6504	0	32524	
6505	0	32796	
6506	0	33116	
6507	0	33132	
6508	0	33286	
6509	0	32948	
6510	0	32440	
6511	0	32452	
6512	0	32728	
6513	0	32917	
6514	0	33148	
6515	0	32992	
6516	0	32890	
6517	0	32704	
6518	0	32692	
6519	0	32420	
6520	0	32460	
6521	0	32622	
6522	0	32860	
6523	0	33261	
6524	0	33384	
6525	0	33528	
6526	0	33349	
6527	0	32832	
6528	0	32568	
6529	0	32412	
6530	0	32536	
6531	0	32460	
6532	0	32476	
6533	0	32384	
6534	0	32396	
6535	0	32648	
6536	0	32884	
6537	0	32864	
6538	0	32944	
6539	0	32748	
6540	0	32788	
6541	0	32655	
6542	0	32708	
6543	0	32709	
6544	0	32584	
6545	0	32676	
6546	0	32668	
6547	0	32661	
6548	0	32592	
6549	0	32588	
6550	0	32632	
6551	0	32748	
6552	0	32982	
6553	0	33016	
6554	0	33068	
6555	0	33132	
6556	0	33172	
6557	0	33190	
6558	0	33120	
6559	0	32972	
6560	0	32944	
6561	0	33108	
6562	0	33012	
6563	0	32824	
6564	0	32692	
6565	0	32612	
6566	0	32778	
6567	0	32584	
6568	0	32376	
6569	0	32312	
6570	0	32436	
6571	0	32444	
6572	0	32648	
6573	0	32620	
6574	0	32628	
6575	0	32684	
6576	0	32772	
6577	0	32784	
6578	0	32840	
6579	0	32981	
6580	0	33028	
6581	0	33060	
6582	0	32996	
6583	0	32944	
6584	0	32864	
6585	0	32852	
6586	0	32864	
6587	0	32784	
6588	0	32720	
6589	0	32692	
6590	0	32748	
6591	0	32752	
6592	0	32724	
6593	0	32588	
6594	0	32644	
6595	0	32680	
6596	0	32696	
6597	0	32657	
6598	0	32700	
6599	0	32744	
6600	0	32820	
6601	0	32916	
6602	0	32828	
6603	0	32796	
6604	0	32788	
6605	0	32800	
6606	0	32724	
6607	0	32749	
6608	0	32817	
6609	0	32840	
6610	0	32804	
6611	0	32784	
6612	0	32804	
6613	0	32708	
6614	0	32777	
6615	0	32792	
6616	0	32792	
6617	0	32784	
6618	0	32796	
6619	0	32788	
6620	0	32736	
6621	0	32772	
6622	0	32832	
6623	0	32804	
6624	0	32900	
6625	0	32836	
6626	0	32840	
6627	0	32788	
6628	0	32700	
6629	0	32784	
6630	0	32718	
6631	0	32784	
6632	0	32829	
6633	0	32800	
6634	0	32768	
6635	0	32764	
6636	0	32832	
6637	0	32848	
6638	0	32868	
6639	0	32840	
6640	0	32676	
6641	0	32576	
6642	0	32616	
6643	0	32744	
6644	0	32912	
6645	0	32788	
6646	0	32892	
6647	0	32680	
6648	0	32548	
6649	0	32712	
6650	0	32880	
6651	0	32856	
6652	0	32772	
6653	0	33020	
6654	0	33212	
6655	0	32888	
6656	0	32892	
6657	0	32544	
6658	0	32220	
6659	0	32264	
6660	0	32237	
6661	0	32486	
6662	0	32812	
6663	0	33136	
6664	0	33376	
6665	0	33368	
6666	0	33212	
6667	0	32968	
6668	0	32908	
6669	0	32748	
6670	0	32624	
6671	0	32724	
6672	0	32728	
6673	0	32720	
6674	0	32680	
6675	0	32708	
6676	0	32846	
6677	0	32789	
6678	0	32797	
6679	0	32784	
6680	0	32704	
6681	0	32677	
6682	0	32720	
6683	0	32752	
6684	0	32756	
6685	0	32628	
6686	0	32560	
6687	0	32756	
6688	0	32856	
6689	0	32796	
6690	0	32832	
6691	0	32872	
6692	0	33016	
6693	0	32888	
6694	0	32844	
6695	0	32732	
6696	0	32748	
6697	0	32796	
6698	0	32729	
6699	0	32704	
6700	0	32796	
6701	0	32764	
6702	0	32798	
6703	0	32816	
6704	0	32892	
6705	0	32777	
6706	0	32712	
6707	0	32708	
6708	0	32660	
6709	0	32756	
6710	0	32772	
6711	0	32788	
6712	0	32708	
6713	0	32762	
6714	0	32788	
6715	0	32753	
6716	0	32704	
6717	0	32676	
6718	0	32716	
6719	0	32802	
6720	0	32720	
6721	0	32792	
6722	0	32808	
6723	0	33044	
6724	0	32952	
6725	0	32816	
6726	0	32916	
6727	0	33112	
6728	0	33066	
6729	0	32776	
6730	0	32552	
6731	0	32596	
6732	0	32604	
6733	0	32628	
6734	0	32712	
6735	0	32684	
6736	0	32636	
6737	0	32740	
6738	0	32820	
6739	0	32876	
6740	0	32892	
6741	0	32892	
6742	0	32825	
6743	0	32772	
6744	0	32772	
6745	0	32792	
6746	0	32868	
6747	0	32904	
6748	0	32856	
6749	0	32740	
6750	0	32776	
6751	0	32780	
6752	0	32853	
6753	0	32908	
6754	0	32832	
6755	0	32728	
6756	0	32704	
6757	0	32558	
6758	0	32636	
6759	0	32752	
6760	0	32800	
6761	0	32758	
6762	0	32704	
6763	0	32728	
6764	0	32724	
6765	0	32712	
6766	0	32748	
6767	0	32788	
6768	0	32840	
6769	0	32804	
6770	0	32768	
6771	0	32724	
6772	0	32800	
6773	0	32829	
6774	0	32788	
6775	0	32802	
6776	0	32852	
6777	0	32881	
6778	0	32872	
6779	0	32812	
6780	0	32830	
6781	0	32792	
6782	0	32722	
6783	0	32804	
6784	0	32836	
6785	0	32744	
6786	0	32712	
6787	0	32716	
6788	0	32752	
6789	0	32812	
6790	0	32772	
6791	0	32840	
6792	0	32768	
6793	0	32734	
6794	0	32732	
6795	0	32672	
6796	0	32758	
6797	0	32816	
6798	0	32792	
6799	0	32794	
6800	0	32732	
6801	0	32730	
6802	0	32856	
6803	0	32820	
6804	0	33060	
6805	0	32876	
6806	0	32824	
6807	0	32928	
6808	0	32724	
6809	0	33121	
6810	0	32800	
6811	0	32450	
6812	0	32344	
6813	0	32392	
6814	0	32588	
6815	0	32864	
6816	0	32829	
6817	0	32772	
6818	0	32749	
6819	0	32894	
6820	0	32808	
6821	0	32824	
6822	0	32800	
6823	0	32816	
6824	0	32876	
6825	0	32816	
6826	0	32805	
6827	0	32744	
6828	0	32752	
6829	0	32748	
6830	0	32804	
6831	0	32720	
6832	0	32744	
6833	0	32728	
6834	0	32766	
6835	0	32788	
6836	0	32868	
6837	0	32836	
6838	0	32784	
6839	0	32781	
6840	0	32800	
6841	0	32788	
6842	0	32848	
6843	0	32860	
6844	0	32762	
6845	0	32796	
6846	0	32724	
6847	0	32824	
6848	0	32772	
6849	0	32844	
6850	0	32720	
6851	0	32732	
6852	0	32800	
6853	0	32736	
6854	0	32740	
6855	0	32772	
6856	0	32820	
6857	0	32809	
6858	0	32804	
6859	0	32684	
6860	0	32816	
6861	0	32800	
6862	0	32805	
6863	0	32740	
6864	0	32744	
6865	0	32780	
6866	0	32709	
6867	0	32733	
6868	0	32800	
6869	0	32812	
6870	0	32794	
6871	0	32800	
6872	0	32724	
6873	0	32724	
6874	0	32708	
6875	0	32780	
6876	0	32928	
6877	0	32972	
6878	0	32773	
6879	0	32761	
6880	0	32900	
6881	0	32836	
6882	0	32729	
6883	0	32652	
6884	0	32680	
6885	0	32633	
6886	0	32752	
6887	0	32744	
6888	0	32732	
6889	0	32776	
6890	0	32848	
6891	0	32998	
6892	0	32984	
6893	0	32936	
6894	0	32780	
6895	0	32749	
6896	0	32700	
6897	0	32644	
6898	0	32676	
6899	0	32664	
6900	0	32740	
6901	0	32774	
6902	0	32804	
6903	0	32873	
6904	0	32800	
6905	0	32856	
6906	0	32848	
6907	0	32745	
6908	0	32753	
6909	0	32766	
6910	0	32736	
6911	0	32756	
6912	0	32856	
6913	0	32808	
6914	0	32762	
6915	0	32680	
6916	0	32744	
6917	0	32780	
6918	0	32700	
6919	0	32732	
6920	0	32836	
6921	0	32784	
6922	0	32748	
6923	0	32868	
6924	0	32860	
6925	0	32832	
6926	0	32876	
6927	0	32748	
6928	0	32824	
6929	0	32782	
6930	0	32788	
6931	0	32792	
6932	0	32828	
6933	0	32760	
6934	0	32636	
6935	0	32704	
6936	0	32776	
6937	0	32736	
6938	0	32732	
6939	0	32816	
6940	0	32848	
6941	0	32676	
6942	0	32604	
6943	0	32828	
6944	0	32676	
6945	0	32740	
6946	0	32868	
6947	0	32832	
6948	0	32956	
6949	0	32887	
6950	0	32736	
6951	0	32724	
6952	0	32654	
6953	0	32740	
6954	0	32804	
6955	0	32734	
6956	0	32604	
6957	0	32736	
6958	0	32804	
6959	0	32868	
6960	0	32904	
6961	0	32844	
6962	0	32801	
6963	0	32780	
6964	0	32812	
6965	0	32824	
6966	0	32856	
6967	0	32816	
6968	0	32688	
6969	0	32756	
6970	0	32844	
6971	0	32792	
6972	0	32772	
6973	0	32652	
6974	0	32652	
6975	0	32784	
6976	0	32812	
6977	0	32796	
6978	0	32792	
6979	0	32808	
6980	0	32840	
6981	0	32764	
6982	0	32788	
6983	0	32776	
6984	0	32676	
6985	0	32752	
6986	0	32904	
6987	0	32764	
6988	0	32736	
6989	0	32760	
6990	0	32724	
6991	0	32794	
6992	0	32792	
6993	0	32788	
6994	0	32824	
6995	0	32840	
6996	0	32860	
6997	0	32860	
6998	0	32871	
6999	0	32784	
7000	0	32790	
7001	0	32672	
7002	0	32740	
7003	0	32704	
7004	0	32788	
7005	0	32740	
7006	0	32844	
7007	0	32868	
7008	0	32901	
7009	0	32750	
7010	0	32664	
7011	0	32624	
7012	0	32596	
7013	0	32612	
7014	0	32796	
7015	0	32740	
7016	0	32736	
7017	0	32792	
7018	0	32844	
7019	0	32884	
7020	0	32872	
7021	0	32812	
7022	0	32708	
7023	0	32712	
7024	0	32764	
7025	0	32816	
7026	0	32756	
7027	0	32752	
7028	0	32788	
7029	0	32824	
7030	0	32720	
7031	0	32808	
7032	0	32840	
7033	0	32780	
7034	0	32804	
7035	0	32756	
7036	0	32844	
7037	0	32836	
7038	0	32790	
7039	0	32676	
7040	0	32716	
7041	0	32724	
7042	0	32756	
7043	0	32780	
7044	0	32812	
7045	0	32861	
7046	0	32828	
7047	0	32868	
7048	0	32848	
7049	0	32816	
7050	0	32816	
7051	0	32692	
7052	0	32737	
7053	0	32788	
7054	0	32732	
7055	0	32716	
7056	0	32680	
7057	0	32801	
7058	0	32800	
7059	0	32712	
7060	0	32740	
7061	0	32804	
7062	0	32772	
7063	0	32728	
7064	0	32760	
7065	0	32664	
7066	0	32748	
7067	0	32748	
7068	0	32844	
7069	0	32900	
7070	0	32860	
7071	0	32800	
7072	0	32849	
7073	0	32824	
7074	0	32824	
7075	0	32848	
7076	0	32836	
7077	0	32776	
7078	0	32696	
7079	0	32741	
7080	0	32740	
7081	0	32748	
7082	0	32777	
7083	0	32796	
7084	0	32816	
7085	0	32806	
7086	0	32808	
7087	0	32812	
7088	0	32832	
7089	0	32788	
7090	0	32718	
7091	0	32760	
7092	0	32661	
7093	0	32668	
7094	0	32708	
7095	0	32724	
7096	0	32680	
7097	0	32772	
7098	0	32840	
7099	0	32856	
7100	0	32844	
7101	0	32828	
7102	0	32888	
7103	0	32838	
7104	0	32812	
7105	0	32824	
7106	0	32784	
7107	0	32776	
7108	0	32728	
7109	0	32744	
7110	0	32744	
7111	0	32716	
7112	0	32737	
7113	0	32744	
7114	0	32708	
7115	0	32740	
7116	0	32756	
7117	0	32926	
7118	0	32948	
7119	0	32952	
7120	0	33012	
7121	0	32768	
7122	0	32484	
7123	0	32444	
7124	0	32653	
7125	0	32700	
7126	0	32700	
7127	0	32824	
7128	0	32984	
7129	0	33040	
7130	0	32768	
7131	0	32652	
7132	0	32644	
7133	0	32656	
7134	0	32700	
7135	0	32796	
7136	0	32808	
7137	0	32796	
7138	0	32816	
7139	0	32772	
7140	0	32868	
7141	0	32832	
7142	0	32932	
7143	0	32880	
7144	0	32840	
7145	0	32808	
7146	0	32738	
7147	0	32776	
7148	0	32740	
7149	0	32736	
7150	0	32708	
7151	0	32806	
7152	0	32772	
7153	0	32780	
7154	0	32741	
7155	0	32732	
7156	0	32756	
7157	0	32800	
7158	0	32708	
7159	0	32789	
7160	0	32766	
7161	0	32704	
7162	0	32744	
7163	0	32728	
7164	0	32724	
7165	0	32788	
7166	0	32816	
7167	0	32756	
7168	0	32864	
7169	0	32908	
7170	0	32904	
7171	0	32845	
7172	0	32756	
7173	0	32792	
7174	0	32801	
7175	0	32916	
7176	0	32752	
7177	0	32744	
7178	0	32776	
7179	0	32808	
7180	0	32648	
7181	0	32685	
7182	0	32781	
7183	0	32732	
7184	0	32826	
7185	0	32889	
7186	0	32888	
7187	0	32768	
7188	0	32751	
7189	0	32872	
7190	0	32820	
7191	0	32708	
7192	0	32604	
7193	0	32672	
7194	0	32805	
7195	0	32805	
7196	0	32776	
7197	0	32732	
7198	0	32716	
7199	0	32776	
7200	0	32820	
7201	0	32924	
7202	0	32964	
7203	0	32804	
7204	0	32692	
7205	0	32692	
7206	0	32820	
7207	0	32900	
7208	0	32844	
7209	0	32652	
7210	0	32716	
7211	0	32712	
7212	0	32700	
7213	0	32668	
7214	0	32681	
7215	0	32654	
7216	0	32808	
7217	0	32756	
7218	0	32832	
7219	0	32856	
7220	0	32990	
7221	0	32911	
7222	0	32900	
7223	0	32797	
7224	0	32688	
7225	0	32680	
7226	0	32740	
7227	0	32801	
7228	0	32704	
7229	0	32832	
7230	0	32844	
7231	0	32665	
7232	0	32736	
7233	0	32752	
7234	0	32784	
7235	0	32760	
7236	0	32742	
7237	0	32740	
7238	0	32822	
7239	0	32868	
7240	0	32816	
7241	0	32796	
7242	0	32768	
7243	0	32836	
7244	0	32736	
7245	0	32812	
7246	0	32820	
7247	0	32852	
7248	0	32760	
7249	0	32752	
7250	0	32756	
7251	0	32770	
7252	0	32728	
7253	0	32748	
7254	0	32712	
7255	0	32781	
7256	0	32784	
7257	0	32736	
7258	0	32764	
7259	0	32780	
7260	0	32852	
7261	0	32956	
7262	0	32849	
7263	0	32816	
7264	0	32704	
7265	0	32808	
7266	0	32833	
7267	0	32820	
7268	0	32756	
7269	0	32728	
7270	0	32824	
7271	0	32784	
7272	0	32728	
7273	0	32704	
7274	0	32733	
7275	0	32788	
7276	0	32752	
7277	0	32868	
7278	0	32804	
7279	0	32808	
7280	0	32884	
7281	0	32777	
7282	0	32876	
7283	0	32981	
7284	0	32740	
7285	0	32725	
7286	0	32876	
7287	0	32828	
7288	0	32661	
7289	0	32684	
7290	0	32732	
7291	0	32689	
7292	0	32716	
7293	0	32712	
7294	0	32756	
7295	0	32720	
7296	0	32800	
7297	0	32812	
7298	0	32872	
7299	0	32860	
7300	0	32836	
7301	0	32756	
7302	0	32722	
7303	0	32716	
7304	0	32716	
7305	0	32732	
7306	0	32784	
7307	0	32776	
7308	0	32780	
7309	0	32776	
7310	0	32696	
7311	0	32800	
7312	0	32828	
7313	0	32836	
7314	0	32860	
7315	0	32841	
7316	0	32936	
7317	0	32860	
7318	0	32768	
7319	0	32776	
7320	0	32764	
7321	0	32824	
7322	0	32788	
7323	0	32788	
7324	0	32726	
7325	0	32776	
7326	0	32804	
7327	0	32816	
7328	0	32680	
7329	0	32596	
7330	0	32440	
7331	0	32718	
7332	0	32752	
7333	0	32764	
7334	0	32820	
7335	0	32824	
7336	0	32876	
7337	0	32960	
7338	0	32892	
7339	0	32709	
7340	0	32756	
7341	0	32808	
7342	0	32828	
7343	0	32780	
7344	0	32796	
7345	0	32744	
7346	0	32724	
7347	0	32852	
7348	0	32828	
7349	0	32864	
7350	0	32780	
7351	0	32808	
7352	0	32732	
7353	0	32686	
7354	0	32686	
7355	0	32780	
7356	0	32828	
7357	0	32828	
7358	0	32706	
7359	0	32700	
7360	0	32780	
7361	0	32736	
7362	0	32822	
7363	0	32816	
7364	0	32756	
7365	0	32836	
7366	0	32856	
7367	0	32788	
7368	0	32821	
7369	0	32844	
7370	0	32794	
7371	0	32820	
7372	0	32716	
7373	0	32733	
7374	0	32724	
7375	0	32688	
7376	0	32756	
7377	0	32773	
7378	0	32732	
7379	0	32772	
7380	0	32808	
7381	0	32796	
7382	0	32840	
7383	0	32702	
7384	0	32724	
7385	0	32780	
7386	0	32762	
7387	0	32692	
7388	0	32758	
7389	0	32865	
7390	0	32784	
7391	0	32768	
7392	0	32852	
7393	0	32925	
7394	0	32836	
7395	0	32802	
7396	0	32804	
7397	0	32848	
7398	0	32792	
7399	0	32720	
7400	0	32704	
7401	0	32840	
7402	0	32856	
7403	0	32736	
7404	0	32785	
7405	0	32800	
7406	0	32756	
7407	0	32758	
7408	0	32716	
7409	0	32644	
7410	0	32740	
7411	0	32760	
7412	0	32732	
7413	0	32757	
7414	0	32812	
7415	0	32828	
7416	0	32696	
7417	0	32903	
7418	0	32920	
7419	0	32896	
7420	0	32772	
7421	0	32740	
7422	0	32768	
7423	0	32740	
7424	0	32752	
7425	0	32780	
7426	0	32760	
7427	0	32836	
7428	0	32761	
7429	0	32780	
7430	0	32772	
7431	0	32792	
7432	0	32728	
7433	0	32760	
7434	0	32736	
7435	0	32800	
7436	0	32756	
7437	0	32788	
7438	0	32737	
7439	0	32812	
7440	0	32800	
7441	0	32732	
7442	0	32760	
7443	0	32792	
7444	0	32856	
7445	0	32850	
7446	0	32848	
7447	0	32765	
7448	0	32804	
7449	0	32788	
7450	0	32828	
7451	0	32780	
7452	0	32744	
7453	0	32840	
7454	0	32812	
7455	0	32768	
7456	0	32740	
7457	0	32789	
7458	0	32784	
7459	0	32790	
7460	0	32788	
7461	0	32756	
7462	0	32692	
7463	0	32772	
7464	0	32764	
7465	0	32768	
7466	0	32796	
7467	0	32844	
7468	0	32828	
7469	0	32865	
7470	0	32860	
7471	0	32808	
7472	0	32832	
7473	0	32820	
7474	0	32680	
7475	0	32733	
7476	0	32868	
7477	0	32804	
7478	0	32836	
7479	0	32720	
7480	0	32704	
7481	0	32704	
7482	0	32776	
7483	0	32806	
7484	0	32900	
7485	0	32744	
7486	0	32716	
7487	0	32692	
7488	0	32775	
7489	0	32772	
7490	0	32728	
7491	0	32752	
7492	0	32704	
7493	0	32717	
7494	0	32780	
7495	0	32684	
7496	0	32774	
7497	0	32816	
7498	0	32856	
7499	0	32868	
7500	0	32852	
7501	0	32868	
7502	0	32900	
7503	0	32904	
7504	0	32876	
7505	0	32876	
7506	0	32716	
7507	0	32725	
7508	0	32748	
7509	0	32816	
7510	0	32784	
7511	0	32680	
7512	0	32572	
7513	0	32772	
7514	0	32836	
7515	0	32756	
7516	0	32740	
7517	0	32656	
7518	0	32892	
7519	0	32892	
7520	0	32884	
7521	0	32704	
7522	0	32676	
7523	0	32696	
7524	0	32800	
7525	0	32784	
7526	0	32672	
7527	0	32724	
7528	0	32824	
7529	0	32829	
7530	0	32796	
7531	0	32628	
7532	0	32728	
7533	0	32884	
7534	0	32940	
7535	0	32984	
7536	0	32932	
7537	0	32832	
7538	0	32660	
7539	0	32620	
7540	0	32692	
7541	0	32704	
7542	0	32753	
7543	0	32756	
7544	0	32760	
7545	0	32900	
7546	0	32976	
7547	0	32916	
7548	0	32860	
7549	0	32876	
7550	0	32934	
7551	0	32764	
7552	0	32716	
7553	0	32668	
7554	0	32664	
7555	0	32676	
7556	0	32732	
7557	0	32700	
7558	0	32761	
7559	0	32760	
7560	0	32781	
7561	0	32784	
7562	0	32788	
7563	0	32736	
7564	0	32778	
7565	0	32744	
7566	0	32808	
7567	0	32832	
7568	0	32856	
7569	0	32852	
7570	0	32852	
7571	0	32848	
7572	0	32778	
7573	0	32720	
7574	0	32816	
7575	0	32849	
7576	0	32781	
7577	0	32704	
7578	0	32757	
7579	0	32684	
7580	0	32774	
7581	0	32776	
7582	0	32776	
7583	0	32736	
7584	0	32772	
7585	0	32758	
7586	0	32832	
7587	0	32812	
7588	0	32816	
7589	0	32820	
7590	0	32766	
7591	0	32796	
7592	0	32764	
7593	0	32808	
7594	0	32776	
7595	0	32796	
7596	0	32700	
7597	0	32808	
7598	0	32776	
7599	0	32680	
7600	0	32796	
7601	0	32796	
7602	0	32802	
7603	0	32760	
7604	0	32848	
7605	0	32856	
7606	0	32800	
7607	0	32724	
7608	0	32865	
7609	0	32753	
7610	0	32728	
7611	0	32676	
7612	0	32768	
7613	0	32800	
7614	0	32820	
7615	0	32712	
7616	0	32772	
7617	0	32692	
7618	0	32668	
7619	0	32776	
7620	0	32860	
7621	0	32892	
7622	0	32844	
7623	0	32790	
7624	0	32852	
7625	0	32984	
7626	0	32912	
7627	0	32904	
7628	0	32848	
7629	0	32620	
7630	0	32728	
7631	0	32838	
7632	0	32720	
7633	0	32616	
7634	0	32688	
7635	0	32572	
7636	0	32576	
7637	0	32728	
7638	0	32753	
7639	0	32788	
7640	0	32736	
7641	0	32753	
7642	0	32769	
7643	0	32724	
7644	0	32712	
7645	0	32852	
7646	0	32752	
7647	0	32797	
7648	0	32844	
7649	0	32832	
7650	0	32824	
7651	0	32808	
7652	0	32872	
7653	0	32916	
7654	0	32852	
7655	0	32824	
7656	0	32868	
7657	0	32877	
7658	0	32812	
7659	0	32762	
7660	0	32716	
7661	0	32740	
7662	0	32694	
7663	0	32716	
7664	0	32760	
7665	0	32792	
7666	0	32808	
7667	0	32816	
7668	0	32753	
7669	0	32800	
7670	0	32824	
7671	0	32752	
7672	0	32772	
7673	0	32796	
7674	0	32828	
7675	0	32792	
7676	0	32740	
7677	0	32748	
7678	0	32725	
7679	0	32736	
7680	0	32756	
7681	0	32784	
7682	0	32872	
7683	0	32752	
7684	0	32840	
7685	0	32884	
7686	0	32844	
7687	0	32824	
7688	0	32996	
7689	0	32768	
7690	0	32632	
7691	0	32688	
7692	0	32740	
7693	0	32684	
7694	0	32724	
7695	0	32672	
7696	0	32776	
7697	0	32789	
7698	0	32884	
7699	0	32767	
7700	0	32809	
7701	0	32744	
7702	0	32772	
7703	0	32884	
7704	0	32808	
7705	0	32720	
7706	0	32756	
7707	0	32852	
7708	0	32888	
7709	0	32710	
7710	0	32724	
7711	0	32737	
7712	0	32772	
7713	0	32840	
7714	0	32820	
7715	0	32744	
7716	0	32636	
7717	0	32737	
7718	0	32716	
7719	0	32780	
7720	0	32832	
7721	0	32816	
7722	0	32916	
7723	0	32948	
7724	0	32932	
7725	0	32798	
7726	0	32844	
7727	0	32788	
7728	0	32656	
7729	0	32655	
7730	0	32813	
7731	0	32744	
7732	0	32720	
7733	0	32780	
7734	0	32756	
7735	0	32768	
7736	0	32736	
7737	0	32748	
7738	0	32741	
7739	0	32752	
7740	0	32636	
7741	0	32764	
7742	0	32785	
7743	0	32836	
7744	0	32856	
7745	0	32788	
7746	0	32760	
7747	0	32784	
7748	0	32738	
7749	0	32836	
7750	0	32824	
7751	0	32800	
7752	0	32669	
7753	0	32645	
7754	0	32797	
7755	0	32808	
7756	0	32752	
7757	0	32736	
7758	0	32776	
7759	0	32804	
7760	0	32808	
7761	0	32816	
7762	0	32828	
7763	0	32792	
7764	0	32788	
7765	0	32688	
7766	0	32852	
7767	0	32772	
7768	0	32784	
7769	0	32820	
7770	0	32888	
7771	0	32808	
7772	0	32737	
7773	0	32688	
7774	0	32708	
7775	0	32709	
7776	0	32668	
7777	0	32748	
7778	0	32740	
7779	0	32772	
7780	0	32885	
7781	0	32968	
7782	0	32916	
7783	0	32776	
7784	0	32772	
7785	0	32832	
7786	0	32932	
7787	0	32820	
7788	0	32716	
7789	0	32664	
7790	0	32748	
7791	0	32713	
7792	0	32652	
7793	0	32648	
7794	0	32764	
7795	0	32761	
7796	0	32728	
7797	0	32676	
7798	0	32686	
7799	0	32704	
7800	0	32772	
7801	0	32852	
7802	0	32920	
7803	0	32908	
7804	0	32748	
7805	0	32796	
7806	0	32880	
7807	0	32864	
7808	0	32932	
7809	0	33036	
7810	0	32960	
7811	0	32712	
7812	0	32680	
7813	0	32628	
7814	0	32608	
7815	0	32676	
7816	0	32816	
7817	0	32744	
7818	0	32652	
7819	0	32624	
7820	0	32788	
7821	0	32846	
7822	0	32774	
7823	0	32804	
7824	0	32808	
7825	0	32728	
7826	0	32816	
7827	0	32748	
7828	0	32728	
7829	0	32716	
7830	0	32756	
7831	0	32780	
7832	0	32670	
7833	0	32776	
7834	0	32824	
7835	0	32836	
7836	0	32700	
7837	0	32734	
7838	0	32750	
7839	0	32720	
7840	0	32752	
7841	0	32709	
7842	0	32708	
7843	0	32772	
7844	0	32736	
7845	0	32848	
7846	0	32784	
7847	0	32741	
7848	0	32772	
7849	0	32750	
7850	0	32820	
7851	0	32864	
7852	0	32820	
7853	0	32736	
7854	0	32676	
7855	0	32792	
7856	0	32804	
7857	0	32856	
7858	0	32766	
7859	0	32837	
7860	0	32760	
7861	0	32804	
7862	0	32792	
7863	0	32760	
7864	0	32772	
7865	0	32820	
7866	0	32824	
7867	0	32868	
7868	0	32792	
7869	0	32748	
7870	0	32732	
7871	0	32734	
7872	0	32820	
7873	0	32864	
7874	0	32828	
7875	0	32792	
7876	0	32768	
7877	0	32748	
7878	0	32668	
7879	0	32812	
7880	0	32837	
7881	0	32724	
7882	0	32852	
7883	0	32812	
7884	0	32888	
7885	0	32856	
7886	0	32884	
7887	0	32917	
7888	0	32828	
7889	0	32804	
7890	0	32836	
7891	0	32828	
7892	0	32716	
7893	0	32728	
7894	0	32708	
7895	0	32764	
7896	0	32740	
7897	0	32760	
7898	0	32720	
7899	0	32734	
7900	0	32750	
7901	0	32752	
7902	0	32720	
7903	0	32704	
7904	0	32792	
7905	0	32848	
7906	0	32896	
7907	0	32924	
7908	0	32808	
7909	0	32752	
7910	0	32808	
7911	0	32896	
7912	0	32796	
7913	0	32808	
7914	0	32872	
7915	0	32756	
7916	0	32836	
7917	0	32792	
7918	0	32828	
7919	0	32648	
7920	0	32720	
7921	0	32790	
7922	0	32752	
7923	0	32628	
7924	0	32596	
7925	0	32576	
7926	0	32686	
7927	0	32860	
7928	0	32813	
7929	0	32796	
7930	0	32768	
7931	0	32804	
7932	0	32824	
7933	0	32908	
7934	0	32776	
7935	0	32820	
7936	0	32880	
7937	0	32912	
7938	0	32820	
7939	0	32748	
7940	0	32712	
7941	0	32808	
7942	0	32816	
7943	0	32752	
7944	0	32714	
7945	0	32774	
7946	0	32712	
7947	0	32704	
7948	0	32808	
7949	0	32748	
7950	0	32725	
7951	0	32804	
7952	0	32732	
7953	0	32816	
7954	0	32728	
7955	0	32796	
7956	0	32804	
7957	0	32826	
7958	0	32805	
7959	0	32720	
7960	0	32748	
7961	0	32804	
7962	0	32776	
7963	0	32724	
7964	0	32788	
7965	0	32764	
7966	0	32784	
7967	0	32736	
7968	0	32748	
7969	0	32812	
7970	0	32752	
7971	0	32800	
7972	0	32772	
7973	0	32752	
7974	0	32824	
7975	0	32824	
7976	0	32788	
7977	0	32768	
7978	0	32796	
7979	0	32832	
7980	0	32828	
7981	0	32836	
7982	0	32736	
7983	0	32772	
7984	0	32778	
7985	0	32728	
7986	0	32750	
7987	0	32820	
7988	0	32804	
7989	0	32792	
7990	0	32772	
7991	0	32804	
7992	0	32756	
7993	0	32768	
7994	0	32764	
7995	0	32760	
7996	0	32792	
7997	0	32836	
7998	0	32740	
7999	0	32780	
8000	0	32800	
8001	0	32716	
8002	0	32801	
8003	0	32680	
8004	0	32729	
8005	0	32736	
8006	0	32769	
8007	0	32780	
8008	0	32772	
8009	0	32816	
8010	0	32853	
8011	0	32872	
8012	0	32864	
8013	0	32802	
8014	0	32884	
8015	0	32736	
8016	0	32756	
8017	0	32716	
8018	0	32804	
8019	0	32776	
8020	0	32832	
8021	0	32808	
8022	0	32780	
8023	0	32796	
8024	0	32868	
8025	0	32752	
8026	0	32736	
8027	0	32760	
8028	0	32636	
8029	0	32772	
8030	0	32808	
8031	0	32710	
8032	0	32808	
8033	0	32876	
8034	0	32940	
8035	0	32860	
8036	0	32830	
8037	0	32780	
8038	0	32848	
8039	0	32888	
8040	0	32816	
8041	0	32708	
8042	0	32592	
8043	0	32652	
8044	0	32681	
8045	0	32688	
8046	0	32752	
8047	0	32800	
8048	0	32702	
8049	0	32880	
8050	0	32808	
8051	0	32780	
8052	0	32740	
8053	0	32724	
8054	0	32732	
8055	0	32720	
8056	0	32828	
8057	0	32804	
8058	0	32879	
8059	0	32774	
8060	0	32788	
8061	0	32777	
8062	0	32764	
8063	0	32792	
8064	0	32828	
8065	0	32784	
8066	0	32704	
8067	0	32740	
8068	0	32696	
8069	0	32844	
8070	0	32805	
8071	0	32836	
8072	0	32804	
8073	0	32812	
8074	0	32712	
8075	0	32770	
8076	0	32832	
8077	0	32822	
8078	0	32900	
8079	0	32924	
8080	0	32772	
8081	0	32788	
8082	0	32816	
8083	0	32676	
8084	0	32772	
8085	0	32772	
8086	0	32784	
8087	0	32752	
8088	0	32688	
8089	0	32760	
8090	0	32800	
8091	0	32748	
8092	0	32820	
8093	0	32840	
8094	0	32781	
8095	0	32884	
8096	0	32773	
8097	0	32861	
8098	0	32776	
8099	0	32837	
8100	0	32860	
8101	0	32780	
8102	0	32817	
8103	0	32749	
8104	0	32728	
8105	0	32737	
8106	0	32716	
8107	0	32720	
8108	0	32852	
8109	0	32812	
8110	0	32756	
8111	0	32714	
8112	0	32760	
8113	0	32752	
8114	0	32752	
8115	0	32785	
8116	0	32740	
8117	0	32774	
8118	0	32788	
8119	0	32820	
8120	0	32748	
8121	0	32784	
8122	0	32780	
8123	0	32824	
8124	0	32868	
8125	0	32812	
8126	0	32741	
8127	0	32824	
8128	0	32780	
8129	0	32836	
8130	0	32761	
8131	0	32836	
8132	0	32820	
8133	0	32772	
8134	0	32668	
8135	0	32692	
8136	0	32740	
8137	0	32824	
8138	0	32816	
8139	0	32812	
8140	0	32792	
8141	0	32801	
8142	0	32756	
8143	0	32737	
8144	0	32852	
8145	0	32876	
8146	0	32818	
8147	0	32744	
8148	0	32704	
8149	0	32756	
8150	0	32780	
8151	0	32772	
8152	0	32848	
8153	0	32892	
8154	0	32793	
8155	0	32644	
8156	0	32676	
8157	0	32740	
8158	0	32796	
8159	0	32800	
8160	0	32724	
8161	0	32720	
8162	0	32748	
8163	0	32712	
8164	0	32848	
8165	0	32856	
8166	0	32802	
8167	0	32788	
8168	0	32804	
8169	0	32836	
8170	0	32760	
8171	0	32797	
8172	0	32758	
8173	0	32772	
8174	0	32845	
8175	0	32844	
8176	0	32796	
8177	0	32764	
8178	0	32813	
8179	0	32669	
8180	0	32764	
8181	0	32780	
8182	0	32708	
8183	0	32688	
8184	0	32775	
8185	0	32716	
8186	0	32736	
8187	0	32724	
8188	0	32756	
8189	0	32876	
8190	0	32932	
8191	0	32916	
8192	0	32878	
8193	0	32804	
8194	0	32696	
8195	0	32688	
8196	0	32708	
8197	0	32852	
8198	0	32864	
8199	0	32816	
8200	0	32817	
8201	0	32724	
8202	0	32712	
8203	0	32733	
8204	0	32760	
8205	0	32793	
8206	0	32712	
8207	0	32752	
8208	0	32648	
8209	0	32712	
8210	0	32858	
8211	0	32896	
8212	0	32940	
8213	0	32836	
8214	0	32776	
8215	0	32782	
8216	0	32696	
8217	0	32828	
8218	0	32854	
8219	0	32844	
8220	0	32774	
8221	0	32804	
8222	0	32734	
8223	0	32706	
8224	0	32772	
8225	0	32781	
8226	0	32648	
8227	0	32712	
8228	0	32740	
8229	0	32732	
8230	0	32724	
8231	0	32760	
8232	0	32756	
8233	0	32708	
8234	0	32775	
8235	0	32724	
8236	0	32812	
8237	0	32808	
8238	0	32816	
8239	0	32852	
8240	0	32848	
8241	0	32773	
8242	0	32760	
8243	0	32832	
8244	0	32794	
8245	0	32772	
8246	0	32748	
8247	0	32800	
8248	0	32736	
8249	0	32804	
8250	0	32756	
8251	0	32724	
8252	0	32760	
8253	0	32784	
8254	0	32804	
8255	0	32802	
8256	0	32820	
8257	0	32788	
8258	0	32868	
8259	0	32768	
8260	0	32793	
8261	0	32800	
8262	0	32824	
8263	0	32804	
8264	0	32740	
8265	0	32712	
8266	0	32686	
8267	0	32756	
8268	0	32764	
8269	0	32793	
8270	0	32824	
8271	0	32800	
8272	0	32824	
8273	0	32772	
8274	0	32746	
8275	0	32776	
8276	0	32788	
8277	0	32740	
8278	0	32740	
8279	0	32800	
8280	0	32772	
8281	0	32712	
8282	0	32736	
8283	0	32760	
8284	0	32860	
8285	0	32720	
8286	0	32722	
8287	0	32784	
8288	0	32888	
8289	0	32864	
8290	0	32888	
8291	0	32952	
8292	0	32920	
8293	0	32889	
8294	0	32824	
8295	0	32720	
8296	0	32776	
8297	0	32700	
8298	0	32718	
8299	0	32788	
8300	0	32780	
8301	0	32744	
8302	0	32740	
8303	0	32712	
8304	0	32644	
8305	0	32744	
8306	0	32784	
8307	0	32848	
8308	0	32880	
8309	0	32809	
8310	0	32740	
8311	0	32816	
8312	0	32824	
8313	0	32832	
8314	0	32798	
8315	0	32740	
8316	0	32760	
8317	0	32668	
8318	0	32708	
8319	0	32708	
8320	0	32788	
8321	0	32789	
8322	0	32828	
8323	0	32792	
8324	0	32740	
8325	0	32748	
8326	0	32736	
8327	0	32718	
8328	0	32704	
8329	0	32736	
8330	0	32716	
8331	0	32784	
8332	0	32732	
8333	0	32864	
8334	0	32813	
8335	0	32772	
8336	0	32836	
8337	0	32886	
8338	0	32924	
8339	0	32804	
8340	0	32840	
8341	0	32861	
8342	0	32788	
8343	0	32716	
8344	0	32728	
8345	0	32752	
8346	0	32734	
8347	0	32712	
8348	0	32716	
8349	0	32776	
8350	0	32676	
8351	0	32812	
8352	0	32788	
8353	0	32760	
8354	0	32697	
8355	0	32756	
8356	0	32848	
8357	0	32904	
8358	0	32836	
8359	0	32780	
8360	0	32764	
8361	0	32748	
8362	0	32824	
8363	0	32780	
8364	0	32796	
8365	0	32772	
8366	0	32780	
8367	0	32784	
8368	0	32774	
8369	0	32728	
8370	0	32812	
8371	0	32780	
8372	0	32796	
8373	0	32728	
8374	0	32748	
8375	0	32860	
8376	0	32840	
8377	0	32756	
8378	0	32652	
8379	0	32756	
8380	0	32750	
8381	0	32700	
8382	0	32729	
8383	0	32776	
8384	0	32873	
8385	0	32949	
8386	0	32932	
8387	0	32864	
8388	0	32832	
8389	0	32852	
8390	0	32792	
8391	0	32727	
8392	0	32646	
8393	0	32660	
8394	0	32704	
8395	0	32792	
8396	0	32816	
8397	0	32840	
8398	0	32764	
8399	0	32756	
8400	0	32825	
8401	0	32852	
8402	0	32744	
8403	0	32752	
8404	0	32748	
8405	0	32785	
8406	0	32774	
8407	0	32772	
8408	0	32776	
8409	0	32772	
8410	0	32768	
8411	0	32696	
8412	0	32817	
8413	0	32834	
8414	0	32812	
8415	0	32832	
8416	0	32880	
8417	0	32860	
8418	0	32940	
8419	0	32804	
8420	0	32656	
8421	0	32678	
8422	0	32692	
8423	0	32764	
8424	0	32828	
8425	0	32820	
8426	0	32748	
8427	0	32788	
8428	0	32804	
8429	0	32808	
8430	0	32676	
8431	0	32716	
8432	0	32744	
8433	0	32772	
8434	0	32736	
8435	0	32748	
8436	0	32841	
8437	0	32940	
8438	0	32784	
8439	0	32784	
8440	0	32780	
8441	0	32812	
8442	0	32772	
8443	0	32852	
8444	0	32676	
8445	0	32604	
8446	0	32616	
8447	0	32724	
8448	0	32828	
8449	0	32828	
8450	0	32782	
8451	0	32768	
8452	0	32672	
8453	0	32712	
8454	0	32764	
8455	0	32804	
8456	0	32764	
8457	0	32860	
8458	0	32816	
8459	0	32869	
8460	0	32908	
8461	0	32824	
8462	0	32828	
8463	0	32830	
8464	0	32782	
8465	0	32680	
8466	0	32648	
8467	0	32768	
8468	0	32804	
8469	0	32744	
8470	0	32736	
8471	0	32732	
8472	0	32752	
8473	0	32808	
8474	0	32776	
8475	0	32748	
8476	0	32816	
8477	0	32900	
8478	0	32892	
8479	0	32908	
8480	0	32800	
8481	0	32844	
8482	0	33076	
8483	0	33012	
8484	0	32812	
8485	0	32692	
8486	0	32608	
8487	0	32644	
8488	0	32688	
8489	0	32661	
8490	0	32736	
8491	0	32732	
8492	0	32756	
8493	0	32776	
8494	0	32772	
8495	0	32756	
8496	0	32824	
8497	0	32760	
8498	0	32788	
8499	0	32732	
8500	0	32784	
8501	0	32720	
8502	0	32776	
8503	0	32828	
8504	0	32820	
8505	0	32768	
8506	0	32733	
8507	0	32716	
8508	0	32750	
8509	0	32792	
8510	0	32814	
8511	0	32756	
8512	0	32768	
8513	0	32840	
8514	0	32760	
8515	0	32896	
8516	0	32792	
8517	0	32792	
8518	0	32829	
8519	0	32772	
8520	0	32796	
8521	0	32876	
8522	0	32809	
8523	0	32748	
8524	0	32704	
8525	0	32656	
8526	0	32725	
8527	0	32792	
8528	0	32836	
8529	0	32760	
8530	0	32812	
8531	0	32776	
8532	0	32760	
8533	0	32712	
8534	0	32656	
8535	0	32780	
8536	0	32725	
8537	0	32784	
8538	0	32692	
8539	0	32782	
8540	0	32796	
8541	0	32749	
8542	0	32810	
8543	0	32688	
8544	0	32688	
8545	0	32641	
8546	0	32697	
8547	0	32748	
8548	0	32804	
8549	0	32829	
8550	0	32808	
8551	0	32852	
8552	0	32932	
8553	0	32896	
8554	0	32896	
8555	0	32864	
8556	0	32788	
8557	0	32832	
8558	0	32824	
8559	0	32796	
8560	0	32764	
8561	0	32748	
8562	0	32825	
8563	0	32800	
8564	0	32752	
8565	0	32756	
8566	0	32776	
8567	0	32900	
8568	0	32944	
8569	0	32852	
8570	0	32720	
8571	0	32644	
8572	0	32688	
8573	0	32788	
8574	0	32736	
8575	0	32808	
8576	0	32818	
8577	0	32720	
8578	0	32744	
8579	0	32752	
8580	0	32720	
8581	0	32760	
8582	0	32760	
8583	0	32804	
8584	0	32749	
8585	0	32750	
8586	0	32776	
8587	0	32744	
8588	0	32780	
8589	0	32832	
8590	0	32864	
8591	0	32782	
8592	0	32740	
8593	0	32772	
8594	0	32788	
8595	0	32788	
8596	0	32768	
8597	0	32776	
8598	0	32736	
8599	0	32776	
8600	0	32792	
8601	0	32808	
8602	0	32756	
8603	0	32732	
8604	0	32745	
8605	0	32805	
8606	0	32800	
8607	0	32832	
8608	0	32900	
8609	0	32808	
8610	0	32760	
8611	0	32728	
8612	0	32854	
